sec	CH1 Input
0	-1.29486
0.005	-1.30615
0.01	-1.32477
0.015	-1.31409
0.02	-1.28937
0.025	-1.30157
0.03	-1.32599
0.035	-1.31378
0.04	-1.29578
0.045	-1.30585
0.05	-1.32538
0.055	-1.3147
0.06	-1.29547
0.065	-1.3031
0.07	-1.32538
0.075	-1.31256
0.08	-1.2912
0.085	-1.30554
0.09	-1.32629
0.095	-1.31531
0.1	-1.29425
0.105	-1.30005
0.11	-1.31805
0.115	-1.31287
0.12	-1.29211
0.125	-1.30341
0.13	-1.32446
0.135	-1.31104
0.14	-1.29333
0.145	-1.30341
0.15	-1.31927
0.155	-1.31134
0.16	-1.29822
0.165	-1.30157
0.17	-1.31714
0.175	-1.31104
0.18	-1.28601
0.185	-1.29425
0.19	-1.32355
0.195	-1.30768
0.2	-1.28571
0.205	-1.30524
0.21	-1.32263
0.215	-1.30981
0.22	-1.28967
0.225	-1.29791
0.23	-1.31653
0.235	-1.31226
0.24	-1.28479
0.245	-1.2973
0.25	-1.32294
0.255	-1.30737
0.26	-1.2851
0.265	-1.29791
0.27	-1.31073
0.275	-1.30066
0.28	-1.28235
0.285	-1.28906
0.29	-1.31226
0.295	-1.30249
0.3	-1.28479
0.305	-1.30066
0.31	-1.32599
0.315	-1.30615
0.32	-1.28357
0.325	-1.2973
0.33	-1.3092
0.335	-1.30432
0.34	-1.28754
0.345	-1.28876
0.35	-1.31256
0.355	-1.30646
0.36	-1.28479
0.365	-1.29181
0.37	-1.32263
0.375	-1.30249
0.38	-1.28326
0.385	-1.29669
0.39	-1.31958
0.395	-1.31226
0.4	-1.28845
0.405	-1.29242
0.41	-1.31287
0.415	-1.30707
0.42	-1.28815
0.425	-1.30188
0.43	-1.31744
0.435	-1.31012
0.44	-1.29059
0.445	-1.30066
0.45	-1.31744
0.455	-1.30829
0.46	-1.2912
0.465	-1.30249
0.47	-1.31622
0.475	-1.31287
0.48	-1.2851
0.485	-1.29852
0.49	-1.31836
0.495	-1.30859
0.5	-1.28937
0.505	-1.29761
0.51	-1.31012
0.515	-1.30707
0.52	-1.28998
0.525	-1.30157
0.53	-1.31989
0.535	-1.3092
0.54	-1.28998
0.545	-1.29822
0.55	-1.31897
0.555	-1.30585
0.56	-1.29333
0.565	-1.30188
0.57	-1.31134
0.575	-1.30981
0.58	-1.28784
0.585	-1.29822
0.59	-1.32751
0.595	-1.31287
0.6	-1.2973
0.605	-1.31226
0.61	-1.32874
0.615	-1.31409
0.62	-1.29608
0.625	-1.30707
0.63	-1.32813
0.635	-1.31226
0.64	-1.29059
0.645	-1.30371
0.65	-1.32263
0.655	-1.31561
0.66	-1.28815
0.665	-1.30096
0.67	-1.32385
0.675	-1.30829
0.68	-1.28693
0.685	-1.29944
0.69	-1.3208
0.695	-1.30676
0.7	-1.28845
0.705	-1.2973
0.71	-1.31989
0.715	-1.30463
0.72	-1.28784
0.725	-1.29608
0.73	-1.31897
0.735	-1.30676
0.74	-1.28662
0.745	-1.297
0.75	-1.32202
0.755	-1.31073
0.76	-1.28174
0.765	-1.30157
0.77	-1.31348
0.775	-1.30646
0.78	-1.28052
0.785	-1.30005
0.79	-1.31836
0.795	-1.30524
0.8	-1.28296
0.805	-1.29944
0.81	-1.31653
0.815	-1.30219
0.82	-1.2854
0.825	-1.29639
0.83	-1.31866
0.835	-1.30524
0.84	-1.27899
0.845	-1.297
0.85	-1.31866
0.855	-1.3028
0.86	-1.28876
0.865	-1.29883
0.87	-1.31836
0.875	-1.30981
0.88	-1.28998
0.885	-1.30341
0.89	-1.32233
0.895	-1.31073
0.9	-1.28693
0.905	-1.31012
0.91	-1.32233
0.915	-1.31317
0.92	-1.29333
0.925	-1.30615
0.93	-1.32477
0.935	-1.31317
0.94	-1.29517
0.945	-1.30859
0.95	-1.32599
0.955	-1.31775
0.96	-1.3028
0.965	-1.31165
0.97	-1.32477
0.975	-1.31073
0.98	-1.29669
0.985	-1.31042
0.99	-1.32446
0.995	-1.31348
1	-1.29669
1.005	-1.31012
1.01	-1.32721
1.015	-1.31287
1.02	-1.30219
1.025	-1.31256
1.03	-1.32751
1.035	-1.32202
1.04	-1.29913
1.045	-1.31195
1.05	-1.3327
1.055	-1.32141
1.06	-1.30005
1.065	-1.31989
1.07	-1.33789
1.075	-1.32263
1.08	-1.30219
1.085	-1.31256
1.09	-1.34033
1.095	-1.32294
1.1	-1.29822
1.105	-1.3147
1.11	-1.34491
1.115	-1.32477
1.12	-1.29913
1.125	-1.3208
1.13	-1.34369
1.135	-1.32446
1.14	-1.30432
1.145	-1.32263
1.15	-1.35101
1.155	-1.33392
1.16	-1.30981
1.165	-1.3327
1.17	-1.34979
1.175	-1.33453
1.18	-1.3092
1.185	-1.33148
1.19	-1.35742
1.195	-1.33881
1.2	-1.31622
1.205	-1.33881
1.21	-1.362
1.215	-1.3443
1.22	-1.32385
1.225	-1.34155
1.23	-1.35651
1.235	-1.34186
1.24	-1.32904
1.245	-1.34369
1.25	-1.35651
1.255	-1.34979
1.26	-1.33392
1.265	-1.34552
1.27	-1.36017
1.275	-1.35071
1.28	-1.33545
1.285	-1.34735
1.29	-1.36505
1.295	-1.34644
1.3	-1.3385
1.305	-1.34552
1.31	-1.37024
1.315	-1.3501
1.32	-1.33301
1.325	-1.34918
1.33	-1.36719
1.335	-1.35895
1.34	-1.33514
1.345	-1.34888
1.35	-1.36108
1.355	-1.34979
1.36	-1.33972
1.365	-1.34888
1.37	-1.37268
1.375	-1.35986
1.38	-1.34338
1.385	-1.35742
1.39	-1.38031
1.395	-1.3678
1.4	-1.34247
1.405	-1.35529
1.41	-1.37451
1.415	-1.3681
1.42	-1.34888
1.425	-1.37085
1.43	-1.38489
1.435	-1.37177
1.44	-1.3501
1.445	-1.36658
1.45	-1.39008
1.455	-1.37634
1.46	-1.35406
1.465	-1.36993
1.47	-1.39038
1.475	-1.36993
1.48	-1.35254
1.485	-1.37695
1.49	-1.39618
1.495	-1.38458
1.5	-1.36414
1.505	-1.38397
1.51	-1.40106
1.515	-1.38672
1.52	-1.36292
1.525	-1.38672
1.53	-1.409
1.535	-1.38947
1.54	-1.37207
1.545	-1.39221
1.55	-1.40808
1.555	-1.39191
1.56	-1.37024
1.565	-1.38153
1.57	-1.40503
1.575	-1.39587
1.58	-1.37604
1.585	-1.38672
1.59	-1.40381
1.595	-1.39252
1.6	-1.38092
1.605	-1.38855
1.61	-1.39648
1.615	-1.38031
1.62	-1.37634
1.625	-1.40228
1.63	-1.41663
1.635	-1.3858
1.64	-1.37329
1.645	-1.39435
1.65	-1.4032
1.655	-1.37695
1.66	-1.37573
1.665	-1.36047
1.67	-1.38
1.675	-1.37756
1.68	-1.37115
1.685	-1.38702
1.69	-1.40717
1.695	-1.39069
1.7	-1.3678
1.705	-1.37604
1.71	-1.40869
1.715	-1.36505
1.72	-1.34094
1.725	-1.35406
1.73	-1.36627
1.735	-1.37756
1.74	-1.35437
1.745	-1.36963
1.75	-1.38763
1.755	-1.36932
1.76	-1.33331
1.765	-1.35345
1.77	-1.38672
1.775	-1.3736
1.78	-1.33179
1.785	-1.34705
1.79	-1.38428
1.795	-1.35956
1.8	-1.33026
1.805	-1.3504
1.81	-1.36505
1.815	-1.36383
1.82	-1.32874
1.825	-1.30066
1.83	-1.31012
1.835	-1.33453
1.84	-1.29333
1.845	-1.32751
1.85	-1.36993
1.855	-1.33453
1.86	-1.29669
1.865	-1.28296
1.87	-1.28723
1.875	-1.27777
1.88	-1.28448
1.885	-1.29272
1.89	-1.2796
1.895	-1.26831
1.9	-1.26862
1.905	-1.22894
1.91	-1.27716
1.915	-1.26465
1.92	-1.21918
1.925	-1.24023
1.93	-1.25519
1.935	-1.21613
1.94	-1.18713
1.945	-1.24481
1.95	-1.24054
1.955	-1.20026
1.96	-1.22925
1.965	-1.21735
1.97	-1.21857
1.975	-1.22803
1.98	-1.17157
1.985	-1.17615
1.99	-1.22498
1.995	-1.17706
2	-1.17767
2.005	-1.15753
2.01	-1.19385
2.015	-1.1377
2.02	-1.16608
2.025	-1.19202
2.03	-1.17188
2.035	-1.11084
2.04	-1.08643
2.045	-1.12671
2.05	-1.1731
2.055	-1.15631
2.06	-1.0318
2.065	-1.08978
2.07	-1.08826
2.075	-1.06781
2.08	-1.02417
2.085	-1.04492
2.09	-1.08917
2.095	-1.07025
2.1	-0.991516
2.105	-1.04431
2.11	-1.09253
2.115	-0.944519
2.12	-0.958862
2.125	-1.04248
2.13	-1.02753
2.135	-1.03027
2.14	-0.861511
2.145	-0.897522
2.15	-0.928955
2.155	-0.976257
2.16	-0.930176
2.165	-0.965881
2.17	-0.995483
2.175	-0.971375
2.18	-0.942688
2.185	-0.873108
2.19	-0.921936
2.195	-0.982056
2.2	-0.849609
2.205	-0.699158
2.21	-0.754089
2.215	-0.865173
2.22	-0.900574
2.225	-0.815125
2.23	-0.783081
2.235	-0.881042
2.24	-0.775452
2.245	-0.739136
2.25	-0.742188
2.255	-0.821228
2.26	-0.71228
2.265	-0.842285
2.27	-0.708923
2.275	-0.671997
2.28	-0.493164
2.285	-0.725403
2.29	-0.733032
2.295	-0.749817
2.3	-0.742493
2.305	-0.80658
2.31	-0.654297
2.315	-0.71106
2.32	-0.509033
2.325	-0.722046
2.33	-0.78949
2.335	-0.723267
2.34	-0.646667
2.345	-0.586853
2.35	-0.514832
2.355	-0.812988
2.36	-0.63324
2.365	-0.779114
2.37	-0.716858
2.375	-0.693359
2.38	-0.622559
2.385	-0.709229
2.39	-0.783081
2.395	-0.494995
2.4	-0.754089
2.405	-0.544434
2.41	-0.729065
2.415	-0.667725
2.42	-0.538635
2.425	-0.671692
2.43	-0.73761
2.435	-0.224304
2.44	-0.514832
2.445	-0.81604
2.45	-0.660095
2.455	-0.272827
2.46	-0.718689
2.465	-0.664673
2.47	-0.675049
2.475	-0.652466
2.48	-0.472107
2.485	-0.675354
2.49	-0.44281
2.495	-0.53772
2.5	-0.599365
2.505	-0.479126
2.51	-0.656738
2.515	-0.657959
2.52	-0.550842
2.525	-0.658875
2.53	-0.387268
2.535	-0.556641
2.54	-0.63446
2.545	-0.349731
2.55	-0.621338
2.555	-0.661621
2.56	-0.497131
2.565	-0.558472
2.57	-0.569458
2.575	-0.637207
2.58	-0.354309
2.585	-0.585632
2.59	-0.569458
2.595	-0.45105
2.6	-0.677185
2.605	-0.608826
2.61	-0.587769
2.615	-0.513916
2.62	-0.51239
2.625	-0.477905
2.63	-0.508728
2.635	-0.649414
2.64	-0.295715
2.645	-0.534668
2.65	-0.597534
2.655	-0.515747
2.66	-0.489502
2.665	-0.542297
2.67	-0.621033
2.675	-0.52063
2.68	-0.491943
2.685	-0.611877
2.69	-0.638428
2.695	-0.508423
2.7	-0.386047
2.705	-0.62439
2.71	-0.617371
2.715	-0.597229
2.72	-0.377502
2.725	-0.592651
2.73	-0.575562
2.735	-0.411377
2.74	-0.59082
2.745	-0.529785
2.75	-0.32196
2.755	-0.408936
2.76	-0.448303
2.765	-0.346069
2.77	-0.563354
2.775	-0.5896
2.78	-0.526428
2.785	-0.473328
2.79	-0.667419
2.795	-0.477905
2.8	-0.502625
2.805	-0.620422
2.81	-0.65155
2.815	-0.518188
2.82	-0.543213
2.825	-0.490112
2.83	-0.432129
2.835	-0.492249
2.84	-0.444031
2.845	-0.486145
2.85	-0.475769
2.855	-0.55542
2.86	-0.243835
2.865	-0.656128
2.87	-0.473633
2.875	-0.560913
2.88	-0.476074
2.885	-0.458069
2.89	-0.61676
2.895	-0.509033
2.9	-0.470276
2.905	-0.563965
2.91	-0.621643
2.915	-0.489807
2.92	-0.45166
2.925	-0.50293
2.93	-0.670166
2.935	-0.341492
2.94	-0.466614
2.945	-0.653687
2.95	-0.591736
2.955	-0.632629
2.96	-0.610352
2.965	-0.558777
2.97	-0.519714
2.975	-0.439758
2.98	-0.613098
2.985	-0.614014
2.99	-0.56366
2.995	-0.592346
3	-0.505676
3.005	-0.539551
3.01	-0.574341
3.015	-0.353394
3.02	-0.48584
3.025	-0.663147
3.03	-0.572815
3.035	-0.577698
3.04	-0.654602
3.045	-0.419006
3.05	-0.583191
3.055	-0.63324
3.06	-0.235596
3.065	-0.663147
3.07	-0.622864
3.075	-0.52002
3.08	-0.566711
3.085	-0.498962
3.09	-0.44281
3.095	-0.426941
3.1	-0.643005
3.105	-0.490723
3.11	-0.720215
3.115	-0.625
3.12	-0.628967
3.125	-0.580444
3.13	-0.43396
3.135	-0.72998
3.14	-0.643921
3.145	-0.363159
3.15	-0.743408
3.155	-0.577393
3.16	-0.59082
3.165	-0.699158
3.17	-0.48645
3.175	-0.489807
3.18	-0.468445
3.185	-0.552063
3.19	-0.343323
3.195	-0.748596
3.2	-0.567627
3.205	-0.591431
3.21	-0.698242
3.215	-0.59967
3.22	-0.545959
3.225	-0.758362
3.23	-0.606384
3.235	-0.55542
3.24	-0.455933
3.245	-0.631409
3.25	-0.509338
3.255	-0.58197
3.26	-0.717163
3.265	-0.484314
3.27	-0.653381
3.275	-0.627747
3.28	-0.635376
3.285	-0.554504
3.29	-0.636292
3.295	-0.6604
3.3	-0.614014
3.305	-0.489502
3.31	-0.89325
3.315	-0.560303
3.32	-0.665283
3.325	-0.644836
3.33	-0.546265
3.335	-0.643921
3.34	-0.492859
3.345	-0.581055
3.35	-0.731201
3.355	-0.596313
3.36	-0.594177
3.365	-0.570679
3.37	-0.650024
3.375	-0.586243
3.38	-0.630493
3.385	-0.512085
3.39	-0.735779
3.395	-0.698242
3.4	-0.299683
3.405	-0.731812
3.41	-0.751343
3.415	-0.571289
3.42	-0.262451
3.425	-0.722961
3.43	-0.674744
3.435	-0.742798
3.44	-0.413513
3.445	-0.524292
3.45	-0.699768
3.455	-0.728455
3.46	-0.695801
3.465	-0.712891
3.47	-0.400085
3.475	-0.758362
3.48	-0.473022
3.485	-0.687256
3.49	-0.717773
3.495	-0.636292
3.5	-0.642395
3.505	-0.71167
3.51	-0.719604
3.515	-0.748901
3.52	-0.417786
3.525	-0.710449
3.53	-0.818176
3.535	-0.675964
3.54	-0.4953
3.545	-0.791626
3.55	-0.482788
3.555	-0.702515
3.56	-0.556946
3.565	-0.787659
3.57	-0.603638
3.575	-0.716553
3.58	-0.570984
3.585	-0.683899
3.59	-0.570374
3.595	-0.592651
3.6	-0.539856
3.605	-0.777283
3.61	-0.75592
3.615	-0.731812
3.62	-0.543823
3.625	-0.736084
3.63	-0.733948
3.635	-0.766907
3.64	-0.696716
3.645	-0.446472
3.65	-0.824585
3.655	-0.56366
3.66	-0.654907
3.665	-0.749817
3.67	-0.654907
3.675	-0.686951
3.68	-0.604248
3.685	-0.953064
3.69	-0.791321
3.695	-0.729065
3.7	-0.539551
3.705	-0.507813
3.71	-0.578308
3.715	-0.881653
3.72	-0.694885
3.725	-0.750732
3.73	-0.775146
3.735	-0.668945
3.74	-0.699158
3.745	-0.533752
3.75	-0.758667
3.755	-0.408936
3.76	-0.554504
3.765	-0.793152
3.77	-0.673828
3.775	-0.741577
3.78	-0.634155
3.785	-0.710754
3.79	-0.844116
3.795	-0.637512
3.8	-0.641479
3.805	-0.780029
3.81	-0.745544
3.815	-0.654602
3.82	-0.6427
3.825	-0.78949
3.83	-0.693359
3.835	-0.9021
3.84	-0.597839
3.845	-0.932007
3.85	-0.695801
3.855	-0.704956
3.86	-0.587463
3.865	-0.769348
3.87	-0.78125
3.875	-0.700073
3.88	-0.59021
3.885	-0.814209
3.89	-0.768433
3.895	-0.572205
3.9	-0.874023
3.905	-0.543213
3.91	-0.770874
3.915	-0.855103
3.92	-0.665283
3.925	-0.701294
3.93	-0.830383
3.935	-0.756226
3.94	-0.560608
3.945	-0.576477
3.95	-0.727539
3.955	-0.728455
3.96	-0.860901
3.965	-0.688171
3.97	-0.730896
3.975	-0.759888
3.98	-0.840454
3.985	-0.762024
3.99	-0.632629
3.995	-0.899658
4	-0.835876
4.005	-0.776062
4.01	-0.634155
4.015	-0.670776
4.02	-0.932007
4.025	-0.822144
4.03	-0.776367
4.035	-0.686646
4.04	-0.943909
4.045	-0.743713
4.05	-0.62561
4.055	-1.02692
4.06	-0.83313
4.065	-0.483704
4.07	-0.880737
4.075	-0.798035
4.08	-0.679932
4.085	-0.794983
4.09	-0.922546
4.095	-0.904541
4.1	-0.535278
4.105	-0.707397
4.11	-0.803223
4.115	-0.644836
4.12	-0.853577
4.125	-0.819397
4.13	-0.760498
4.135	-0.887146
4.14	-0.397644
4.145	-1.01715
4.15	-0.925598
4.155	-0.657654
4.16	-0.788269
4.165	-0.83313
4.17	-0.577087
4.175	-0.925903
4.18	-0.773926
4.185	-0.600891
4.19	-0.864868
4.195	-0.900574
4.2	-0.768127
4.205	-0.960693
4.21	-0.749512
4.215	-0.76416
4.22	-0.791931
4.225	-0.721741
4.23	-0.96405
4.235	-0.873718
4.24	-0.539551
4.245	-0.833435
4.25	-0.946045
4.255	-0.763245
4.26	-0.815125
4.265	-0.829773
4.27	-0.857849
4.275	-0.867615
4.28	-0.778198
4.285	-0.959778
4.29	-0.750732
4.295	-0.820313
4.3	-0.776367
4.305	-0.856934
4.31	-0.915222
4.315	-0.738525
4.32	-0.806885
4.325	-0.848389
4.33	-0.805969
4.335	-0.860291
4.34	-0.932922
4.345	-0.951538
4.35	-0.960693
4.355	-0.950928
4.36	-0.884094
4.365	-0.707703
4.37	-0.909119
4.375	-0.940247
4.38	-0.813904
4.385	-0.897522
4.39	-0.838928
4.395	-0.797424
4.4	-0.997009
4.405	-0.826416
4.41	-0.625916
4.415	-0.908203
4.42	-0.730286
4.425	-0.855713
4.43	-1.0437
4.435	-0.874939
4.44	-0.939331
4.445	-0.917053
4.45	-0.859985
4.455	-0.783386
4.46	-0.891418
4.465	-0.734558
4.47	-0.846863
4.475	-0.813904
4.48	-0.917664
4.485	-0.935669
4.49	-0.953979
4.495	-0.776672
4.5	-1.0611
4.505	-0.947876
4.51	-0.715027
4.515	-1.02539
4.52	-0.897827
4.525	-1.00952
4.53	-0.989685
4.535	-0.875244
4.54	-0.776367
4.545	-0.892639
4.55	-0.978394
4.555	-1.02295
4.56	-0.845642
4.565	-0.87677
4.57	-1.08398
4.575	-0.940552
4.58	-0.861816
4.585	-0.590515
4.59	-1.04919
4.595	-0.837097
4.6	-0.965271
4.605	-0.960999
4.61	-1.03577
4.615	-0.89325
4.62	-0.932922
4.625	-0.959473
4.63	-0.663147
4.635	-1.06354
4.64	-0.967102
4.645	-0.943298
4.65	-1.00464
4.655	-0.950928
4.66	-0.947266
4.665	-0.999451
4.67	-0.914001
4.675	-0.852356
4.68	-1.1322
4.685	-0.698547
4.69	-1.09863
4.695	-1.01624
4.7	-0.822144
4.705	-0.98114
4.71	-0.982056
4.715	-1.04553
4.72	-0.895691
4.725	-1.01227
4.73	-1.02875
4.735	-0.696716
4.74	-1.11359
4.745	-1.00616
4.75	-1.05377
4.755	-0.984192
4.76	-0.935364
4.765	-0.947266
4.77	-1.09192
4.775	-1.06232
4.78	-1.07574
4.785	-0.934448
4.79	-1.11877
4.795	-0.979614
4.8	-0.829163
4.805	-1.03058
4.81	-1.10474
4.815	-1.09589
4.82	-0.987244
4.825	-0.911865
4.83	-1.20148
4.835	-1.03943
4.84	-0.996094
4.845	-1.09619
4.85	-0.999756
4.855	-0.9021
4.86	-1.06567
4.865	-1.17126
4.87	-1.07422
4.875	-1.04156
4.88	-1.02692
4.885	-1.091
4.89	-1.09802
4.895	-1.05316
4.9	-0.913086
4.905	-1.14532
4.91	-0.823669
4.915	-1.22528
4.92	-1.07483
4.925	-1.10779
4.93	-1.13708
4.935	-1.073
4.94	-1.01868
4.945	-1.02081
4.95	-1.1142
4.955	-1.07666
4.96	-0.856323
4.965	-1.10718
4.97	-1.13739
4.975	-1.04706
4.98	-1.13007
4.985	-1.07117
4.99	-1.14166
4.995	-0.94574
5	-1.00861
5.005	-1.07391
5.01	-1.17889
5.015	-1.10382
5.02	-1.11145
5.025	-0.879822
5.03	-1.19049
5.035	-1.01837
5.04	-1.18927
5.045	-1.13556
5.05	-1.01593
5.055	-1.1145
5.06	-1.09924
5.065	-1.19537
5.07	-1.08612
5.075	-1.15173
5.08	-1.13068
5.085	-1.12579
5.09	-1.12854
5.095	-0.920715
5.1	-1.17462
5.105	-1.18866
5.11	-1.18805
5.115	-1.19476
5.12	-1.13953
5.125	-1.04645
5.13	-1.20789
5.135	-1.12946
5.14	-1.18561
5.145	-1.14319
5.15	-1.20117
5.155	-1.17218
5.16	-1.17767
5.165	-1.21613
5.17	-1.25275
5.175	-1.20117
5.18	-1.12244
5.185	-1.17401
5.19	-1.1377
5.195	-1.25153
5.2	-1.15845
5.205	-1.19354
5.21	-1.22528
5.215	-1.21277
5.22	-1.185
5.225	-1.20605
5.23	-1.26251
5.235	-1.22009
5.24	-1.17645
5.245	-1.22284
5.25	-1.26984
5.255	-1.24115
5.26	-1.20422
5.265	-1.24451
5.27	-1.27869
5.275	-1.26007
5.28	-1.21948
5.285	-1.25
5.29	-1.3031
5.295	-1.25275
5.3	-1.19232
5.305	-1.19019
5.31	-1.30219
5.315	-1.2619
5.32	-1.22833
5.325	-1.27258
5.33	-1.31409
5.335	-1.26648
5.34	-1.23199
5.345	-1.2793
5.35	-1.3208
5.355	-1.27991
5.36	-1.24512
5.365	-1.29181
5.37	-1.32507
5.375	-1.28967
5.38	-1.25031
5.385	-1.27899
5.39	-1.3382
5.395	-1.29272
5.4	-1.25793
5.405	-1.30096
5.41	-1.34064
5.415	-1.28754
5.42	-1.28723
5.425	-1.31744
5.43	-1.35071
5.435	-1.31226
5.44	-1.28754
5.445	-1.32019
5.45	-1.35803
5.455	-1.3266
5.46	-1.29089
5.465	-1.33026
5.47	-1.37146
5.475	-1.33179
5.48	-1.3028
5.485	-1.33057
5.49	-1.3681
5.495	-1.34186
5.5	-1.30737
5.505	-1.34186
5.51	-1.38458
5.515	-1.36047
5.52	-1.31836
5.525	-1.34766
5.53	-1.39832
5.535	-1.36383
5.54	-1.32935
5.545	-1.36169
5.55	-1.40289
5.555	-1.37878
5.56	-1.3382
5.565	-1.37054
5.57	-1.41205
5.575	-1.37878
5.58	-1.34369
5.585	-1.37665
5.59	-1.42029
5.595	-1.38824
5.6	-1.35651
5.605	-1.38855
5.61	-1.4267
5.615	-1.40076
5.62	-1.37634
5.625	-1.41052
5.63	-1.44501
5.635	-1.42029
5.64	-1.38824
5.645	-1.42334
5.65	-1.45874
5.655	-1.427
5.66	-1.40289
5.665	-1.43829
5.67	-1.46667
5.675	-1.4325
5.68	-1.41357
5.685	-1.44135
5.69	-1.46942
5.695	-1.43555
5.7	-1.41724
5.705	-1.4566
5.71	-1.48773
5.715	-1.45386
5.72	-1.42731
5.725	-1.46637
5.73	-1.49414
5.735	-1.46179
5.74	-1.44714
5.745	-1.4801
5.75	-1.50757
5.755	-1.47919
5.76	-1.45233
5.765	-1.49353
5.77	-1.51367
5.775	-1.49078
5.78	-1.45844
5.785	-1.49658
5.79	-1.51794
5.795	-1.49109
5.8	-1.46515
5.805	-1.49078
5.81	-1.52008
5.815	-1.49323
5.82	-1.47247
5.825	-1.50696
5.83	-1.53748
5.835	-1.5097
5.84	-1.48621
5.845	-1.51215
5.85	-1.53625
5.855	-1.52191
5.86	-1.49231
5.865	-1.51062
5.87	-1.53931
5.875	-1.51367
5.88	-1.49536
5.885	-1.51642
5.89	-1.53992
5.895	-1.51611
5.9	-1.48834
5.905	-1.5155
5.91	-1.54297
5.915	-1.52618
5.92	-1.5033
5.925	-1.52527
5.93	-1.55914
5.935	-1.52313
5.94	-1.49872
5.945	-1.52802
5.95	-1.54877
5.955	-1.52679
5.96	-1.50208
5.965	-1.5271
5.97	-1.5448
5.975	-1.52344
5.98	-1.49139
5.985	-1.52222
5.99	-1.54053
5.995	-1.50787
6	-1.4801
6.005	-1.50513
6.01	-1.52435
6.015	-1.49536
6.02	-1.47308
6.025	-1.49017
6.03	-1.51031
6.035	-1.48956
6.04	-1.47095
6.045	-1.49231
6.05	-1.51611
6.055	-1.48895
6.06	-1.46942
6.065	-1.48987
6.07	-1.50513
6.075	-1.47369
6.08	-1.44897
6.085	-1.46667
6.09	-1.48407
6.095	-1.4566
6.1	-1.42822
6.105	-1.45203
6.11	-1.46027
6.115	-1.44348
6.12	-1.41907
6.125	-1.43402
6.13	-1.44714
6.135	-1.42975
6.14	-1.40381
6.145	-1.42151
6.15	-1.4389
6.155	-1.4212
6.16	-1.39618
6.165	-1.41541
6.17	-1.43066
6.175	-1.40472
6.18	-1.38245
6.185	-1.40045
6.19	-1.41418
6.195	-1.39069
6.2	-1.3739
6.205	-1.39099
6.21	-1.39252
6.215	-1.37939
6.22	-1.3559
6.225	-1.37238
6.23	-1.3855
6.235	-1.36505
6.24	-1.34918
6.245	-1.36475
6.25	-1.37451
6.255	-1.35803
6.26	-1.33667
6.265	-1.34796
6.27	-1.35895
6.275	-1.34033
6.28	-1.32324
6.285	-1.34552
6.29	-1.34674
6.295	-1.32294
6.3	-1.31165
6.305	-1.31683
6.31	-1.32263
6.315	-1.30402
6.32	-1.28601
6.325	-1.29089
6.33	-1.28845
6.335	-1.26129
6.34	-1.24908
6.345	-1.25763
6.35	-1.2561
6.355	-1.23749
6.36	-1.2207
6.365	-1.22498
6.37	-1.23627
6.375	-1.21552
6.38	-1.20026
6.385	-1.20453
6.39	-1.20789
6.395	-1.19263
6.4	-1.17493
6.405	-1.18256
6.41	-1.18896
6.415	-1.16882
6.42	-1.16333
6.425	-1.16791
6.43	-1.17249
6.435	-1.15753
6.44	-1.14166
6.445	-1.15112
6.45	-1.15997
6.455	-1.14258
6.46	-1.12854
6.465	-1.1441
6.47	-1.13739
6.475	-1.12854
6.48	-1.12488
6.485	-1.12305
6.49	-1.12732
6.495	-1.12183
6.5	-1.11328
6.505	-1.12488
6.51	-1.1322
6.515	-1.12457
6.52	-1.11938
6.525	-1.13342
6.53	-1.13708
6.535	-1.13556
6.54	-1.13525
6.545	-1.13739
6.55	-1.14075
6.555	-1.14441
6.56	-1.14014
6.565	-1.13861
6.57	-1.14105
6.575	-1.13739
6.58	-1.13434
6.585	-1.13953
6.59	-1.138
6.595	-1.12701
6.6	-1.1319
6.605	-1.12701
6.61	-1.1319
6.615	-1.13098
6.62	-1.12396
6.625	-1.12
6.63	-1.12152
6.635	-1.10962
6.64	-1.1087
6.645	-1.10809
6.65	-1.10596
6.655	-1.10596
6.66	-1.09863
6.665	-1.10565
6.67	-1.11023
6.675	-1.11511
6.68	-1.11542
6.685	-1.11847
6.69	-1.12305
6.695	-1.11664
6.7	-1.12549
6.705	-1.12976
6.71	-1.12793
6.715	-1.12823
6.72	-1.12671
6.725	-1.1261
6.73	-1.13525
6.735	-1.13007
6.74	-1.12976
6.745	-1.1377
6.75	-1.13312
6.755	-1.13708
6.76	-1.14044
6.765	-1.13586
6.77	-1.14838
6.775	-1.14471
6.78	-1.15265
6.785	-1.15295
6.79	-1.15814
6.795	-1.16516
6.8	-1.16852
6.805	-1.1734
6.81	-1.17371
6.815	-1.17889
6.82	-1.18225
6.825	-1.18774
6.83	-1.19141
6.835	-1.19873
6.84	-1.19934
6.845	-1.20483
6.85	-1.21033
6.855	-1.21002
6.86	-1.21368
6.865	-1.22437
6.87	-1.22314
6.875	-1.23322
6.88	-1.23169
6.885	-1.23413
6.89	-1.23688
6.895	-1.25092
6.9	-1.24573
6.905	-1.24725
6.91	-1.24969
6.915	-1.25519
6.92	-1.24695
6.925	-1.25854
6.93	-1.26038
6.935	-1.26251
6.94	-1.2619
6.945	-1.2674
6.95	-1.26343
6.955	-1.2677
6.96	-1.2674
6.965	-1.27289
6.97	-1.28113
6.975	-1.27472
6.98	-1.27472
6.985	-1.28357
6.99	-1.28052
6.995	-1.27838
7	-1.2851
7.005	-1.28265
7.01	-1.28632
7.015	-1.28387
7.02	-1.2854
7.025	-1.28693
7.03	-1.29639
7.035	-1.28723
7.04	-1.28998
7.045	-1.29395
7.05	-1.29608
7.055	-1.29059
7.06	-1.29883
7.065	-1.29944
7.07	-1.29822
7.075	-1.29486
7.08	-1.29395
7.085	-1.30402
7.09	-1.30188
7.095	-1.30157
7.1	-1.29028
7.105	-1.30371
7.11	-1.3031
7.115	-1.29578
7.12	-1.29974
7.125	-1.30066
7.13	-1.30798
7.135	-1.30768
7.14	-1.3031
7.145	-1.30981
7.15	-1.30951
7.155	-1.30707
7.16	-1.30585
7.165	-1.30798
7.17	-1.30859
7.175	-1.30615
7.18	-1.30951
7.185	-1.2973
7.19	-1.30981
7.195	-1.30554
7.2	-1.30463
7.205	-1.30798
7.21	-1.30707
7.215	-1.30768
7.22	-1.30981
7.225	-1.30157
7.23	-1.31073
7.235	-1.30951
7.24	-1.30798
7.245	-1.30432
7.25	-1.31165
7.255	-1.30768
7.26	-1.30585
7.265	-1.30798
7.27	-1.30859
7.275	-1.30981
7.28	-1.30554
7.285	-1.30859
7.29	-1.31195
7.295	-1.31256
7.3	-1.30585
7.305	-1.30249
7.31	-1.30829
7.315	-1.30554
7.32	-1.30035
7.325	-1.30371
7.33	-1.3147
7.335	-1.30737
7.34	-1.30219
7.345	-1.30554
7.35	-1.31165
7.355	-1.30188
7.36	-1.29883
7.365	-1.30707
7.37	-1.31378
7.375	-1.30432
7.38	-1.29669
7.385	-1.30615
7.39	-1.31134
7.395	-1.30981
7.4	-1.30157
7.405	-1.31104
7.41	-1.31836
7.415	-1.31134
7.42	-1.30768
7.425	-1.31073
7.43	-1.31744
7.435	-1.3089
7.44	-1.30341
7.445	-1.31653
7.45	-1.3147
7.455	-1.30798
7.46	-1.30249
7.465	-1.30615
7.47	-1.31378
7.475	-1.30829
7.48	-1.30554
7.485	-1.32172
7.49	-1.33301
7.495	-1.32263
7.5	-1.31409
7.505	-1.32843
7.51	-1.33057
7.515	-1.31683
7.52	-1.31256
7.525	-1.32172
7.53	-1.3266
7.535	-1.31378
7.54	-1.3092
7.545	-1.31653
7.55	-1.3327
7.555	-1.31805
7.56	-1.31104
7.565	-1.31653
7.57	-1.32324
7.575	-1.31561
7.58	-1.30554
7.585	-1.31409
7.59	-1.3269
7.595	-1.31744
7.6	-1.30798
7.605	-1.31531
7.61	-1.31714
7.615	-1.31042
7.62	-1.30768
7.625	-1.31409
7.63	-1.32141
7.635	-1.30859
7.64	-1.29883
7.645	-1.31226
7.65	-1.31622
7.655	-1.31348
7.66	-1.29578
7.665	-1.30737
7.67	-1.31958
7.675	-1.30951
7.68	-1.29944
7.685	-1.31195
7.69	-1.31897
7.695	-1.31165
7.7	-1.30005
7.705	-1.31012
7.71	-1.315
7.715	-1.30707
7.72	-1.30035
7.725	-1.30981
7.73	-1.31317
7.735	-1.30432
7.74	-1.30219
7.745	-1.31134
7.75	-1.31561
7.755	-1.30676
7.76	-1.29639
7.765	-1.30615
7.77	-1.31653
7.775	-1.30463
7.78	-1.3031
7.785	-1.30524
7.79	-1.31317
7.795	-1.30188
7.8	-1.2973
7.805	-1.30402
7.81	-1.30402
7.815	-1.30676
7.82	-1.29456
7.825	-1.30768
7.83	-1.31683
7.835	-1.29944
7.84	-1.30249
7.845	-1.30768
7.85	-1.31836
7.855	-1.30157
7.86	-1.30066
7.865	-1.30676
7.87	-1.30615
7.875	-1.30432
7.88	-1.29059
7.885	-1.30524
7.89	-1.31012
7.895	-1.30096
7.9	-1.30157
7.905	-1.31409
7.91	-1.31561
7.915	-1.3028
7.92	-1.29272
7.925	-1.30585
7.93	-1.30524
7.935	-1.30096
7.94	-1.28815
7.945	-1.30005
7.95	-1.30859
7.955	-1.29364
7.96	-1.30096
7.965	-1.29578
7.97	-1.30646
7.975	-1.297
7.98	-1.28998
7.985	-1.297
7.99	-1.30035
7.995	-1.29669
8	-1.28937
8.005	-1.30219
8.01	-1.30554
8.015	-1.29333
8.02	-1.29211
8.025	-1.29883
8.03	-1.30585
8.035	-1.28937
8.04	-1.28906
8.045	-1.29822
8.05	-1.30066
8.055	-1.29486
8.06	-1.28174
8.065	-1.29517
8.07	-1.30219
8.075	-1.28693
8.08	-1.29089
8.085	-1.297
8.09	-1.30005
8.095	-1.29059
8.1	-1.28754
8.105	-1.29425
8.11	-1.29883
8.115	-1.29211
8.12	-1.28448
8.125	-1.29761
8.13	-1.30646
8.135	-1.28754
8.14	-1.28876
8.145	-1.30188
8.15	-1.3031
8.155	-1.28967
8.16	-1.28601
8.165	-1.29181
8.17	-1.29669
8.175	-1.28784
8.18	-1.28906
8.185	-1.28906
8.19	-1.29822
8.195	-1.29333
8.2	-1.2854
8.205	-1.2973
8.21	-1.3028
8.215	-1.28845
8.22	-1.28326
8.225	-1.29089
8.23	-1.28479
8.235	-1.28235
8.24	-1.27411
8.245	-1.2912
8.25	-1.29913
8.255	-1.28632
8.26	-1.28174
8.265	-1.28601
8.27	-1.297
8.275	-1.28845
8.28	-1.27991
8.285	-1.28845
8.29	-1.28906
8.295	-1.28113
8.3	-1.27136
8.305	-1.29211
8.31	-1.29303
8.315	-1.28174
8.32	-1.2854
8.325	-1.28235
8.33	-1.29547
8.335	-1.28601
8.34	-1.27258
8.345	-1.28418
8.35	-1.28632
8.355	-1.28174
8.36	-1.2738
8.365	-1.28876
8.37	-1.2912
8.375	-1.27899
8.38	-1.28296
8.385	-1.27686
8.39	-1.28815
8.395	-1.27869
8.4	-1.26678
8.405	-1.28571
8.41	-1.28418
8.415	-1.27502
8.42	-1.27075
8.425	-1.28143
8.43	-1.28479
8.435	-1.27258
8.44	-1.27899
8.445	-1.27747
8.45	-1.28082
8.455	-1.27625
8.46	-1.26801
8.465	-1.27045
8.47	-1.27625
8.475	-1.26709
8.48	-1.26343
8.485	-1.27808
8.49	-1.28174
8.495	-1.27106
8.5	-1.26831
8.505	-1.27533
8.51	-1.28052
8.515	-1.26587
8.52	-1.26068
8.525	-1.27258
8.53	-1.26953
8.535	-1.2616
8.54	-1.25092
8.545	-1.26587
8.55	-1.26434
8.555	-1.26282
8.56	-1.26251
8.565	-1.2677
8.57	-1.26862
8.575	-1.26129
8.58	-1.25214
8.585	-1.27045
8.59	-1.25732
8.595	-1.24603
8.6	-1.24664
8.605	-1.27014
8.61	-1.27441
8.615	-1.25183
8.62	-1.26556
8.625	-1.26404
8.63	-1.26678
8.635	-1.25519
8.64	-1.26068
8.645	-1.26221
8.65	-1.25549
8.655	-1.26465
8.66	-1.25732
8.665	-1.26373
8.67	-1.26495
8.675	-1.27228
8.68	-1.26678
8.685	-1.27594
8.69	-1.27808
8.695	-1.26434
8.7	-1.25793
8.705	-1.27472
8.71	-1.27716
8.715	-1.2561
8.72	-1.2381
8.725	-1.23566
8.73	-1.26343
8.735	-1.25458
8.74	-1.26404
8.745	-1.26923
8.75	-1.2677
8.755	-1.26251
8.76	-1.24481
8.765	-1.24542
8.77	-1.29211
8.775	-1.2796
8.78	-1.28693
8.785	-1.28998
8.79	-1.25061
8.795	-1.26404
8.8	-1.28143
8.805	-1.29883
8.81	-1.31897
8.815	-1.31622
8.82	-1.31805
8.825	-1.32996
8.83	-1.34705
8.835	-1.34857
8.84	-1.33881
8.845	-1.35559
8.85	-1.34979
8.855	-1.34277
8.86	-1.30402
8.865	-1.3446
8.87	-1.37268
8.875	-1.37634
8.88	-1.39374
8.885	-1.3797
8.89	-1.38397
8.895	-1.36444
8.9	-1.38702
8.905	-1.40961
8.91	-1.35834
8.915	-1.38733
8.92	-1.39435
8.925	-1.42487
8.93	-1.42395
8.935	-1.42792
8.94	-1.3855
8.945	-1.40869
8.95	-1.42792
8.955	-1.4032
8.96	-1.37299
8.965	-1.26526
8.97	-1.42517
8.975	-1.46698
8.98	-1.42792
8.985	-1.42273
8.99	-1.39313
8.995	-1.41724
9	-1.4447
9.005	-1.38306
9.01	-1.42365
9.015	-1.40137
9.02	-1.43646
9.025	-1.3916
9.03	-1.42334
9.035	-1.43707
9.04	-1.39862
9.045	-1.46027
9.05	-1.41113
9.055	-1.37421
9.06	-1.36292
9.065	-1.38
9.07	-1.44135
9.075	-1.44073
9.08	-1.33057
9.085	-1.44836
9.09	-1.36261
9.095	-1.39465
9.1	-1.35193
9.105	-1.45203
9.11	-1.43707
9.115	-1.37604
9.12	-1.39343
9.125	-1.40869
9.13	-1.42456
9.135	-1.16638
9.14	-1.23901
9.145	-1.37817
9.15	-1.35071
9.155	-1.46515
9.16	-1.31622
9.165	-1.46942
9.17	-1.39618
9.175	-1.32996
9.18	-1.33972
9.185	-1.40839
9.19	-1.3327
9.195	-1.39954
9.2	-1.40228
9.205	-1.40656
9.21	-1.23871
9.215	-1.19934
9.22	-1.30371
9.225	-1.40076
9.23	-1.32965
9.235	-1.34064
9.24	-1.3797
9.245	-1.32019
9.25	-1.42792
9.255	-1.3559
9.26	-1.26495
9.265	-1.25336
9.27	-1.42822
9.275	-1.25092
9.28	-1.16333
9.285	-1.24695
9.29	-1.35315
9.295	-1.31531
9.3	-1.2915
9.305	-1.17584
9.31	-1.1969
9.315	-1.37573
9.32	-1.20789
9.325	-1.12427
9.33	-1.03363
9.335	-1.01288
9.34	-1.41083
9.345	-0.907593
9.35	-1.26617
9.355	-1.23199
9.36	-1.29883
9.365	-1.12396
9.37	-1.27716
9.375	-1.2326
9.38	-1.17584
9.385	-1.20941
9.39	-1.12946
9.395	-1.18256
9.4	-0.896301
9.405	-1.07025
9.41	-1.15356
9.415	-1.30249
9.42	-1.01318
9.425	-1.26129
9.43	-1.21429
9.435	-1.00861
9.44	-1.11237
9.445	-1.20422
9.45	-1.12305
9.455	-1.18164
9.46	-1.22406
9.465	-0.949097
9.47	-1.08765
9.475	-1.19324
9.48	-1.01929
9.485	-1.31165
9.49	-1.27899
9.495	-1.03851
9.5	-1.01166
9.505	-1.25244
9.51	-1.02112
9.515	-1.26251
9.52	-0.984802
9.525	-1.26099
9.53	-1.10443
9.535	-1.24054
9.54	-1.30829
9.545	-1.12427
9.55	-1.21765
9.555	-1.11084
9.56	-1.17554
9.565	-1.29669
9.57	-1.06415
9.575	-1.02661
9.58	-1.06506
9.585	-1.32111
9.59	-0.977173
9.595	-1.30249
9.6	-1.1792
9.605	-1.1795
9.61	-1.25244
9.615	-1.12213
9.62	-1.13617
9.625	-1.14899
9.63	-1.33545
9.635	-1.09802
9.64	-1.24847
9.645	-1.05621
9.65	-1.18408
9.655	-1.14136
9.66	-1.11816
9.665	-1.10809
9.67	-1.34277
9.675	-1.22437
9.68	-0.822449
9.685	-1.5036
9.69	-1.31775
9.695	-0.948486
9.7	-1.32385
9.705	-1.28052
9.71	-1.22681
9.715	-1.01013
9.72	-1.00677
9.725	-1.34918
9.73	-1.29639
9.735	-1.21124
9.74	-1.11389
9.745	-1.08643
9.75	-1.19446
9.755	-1.31439
9.76	-1.05042
9.765	-1.14716
9.77	-1.3562
9.775	-1.17401
9.78	-1.33881
9.785	-1.1496
9.79	-1.11237
9.795	-0.988159
9.8	-1.44989
9.805	-1.28784
9.81	-1.13739
9.815	-1.24756
9.82	-1.18378
9.825	-1.09589
9.83	-1.2204
9.835	-1.14471
9.84	-1.28174
9.845	-1.28143
9.85	-1.19751
9.855	-1.18134
9.86	-1.23383
9.865	-1.21185
9.87	-1.31927
9.875	-1.26526
9.88	-1.21063
9.885	-1.30646
9.89	-1.06781
9.895	-1.28235
9.9	-1.30646
9.905	-1.11206
9.91	-1.12244
9.915	-1.13464
9.92	-1.28571
9.925	-1.24542
9.93	-1.39587
9.935	-1.13892
9.94	-1.04797
9.945	-1.11023
9.95	-1.19507
9.955	-1.16241
9.96	-1.44684
9.965	-1.20667
9.97	-1.03119
9.975	-1.28998
9.98	-1.29639
9.985	-1.38153
9.99	-1.21185
9.995	-0.934448
10	-1.46729
10.005	-1.14075
10.01	-1.36871
10.015	-1.28113
10.02	-1.073
10.025	-1.34338
10.03	-1.30249
10.035	-1.18195
10.04	-1.21063
10.045	-1.3385
10.05	-0.873718
10.055	-1.04218
10.06	-1.47034
10.065	-1.37634
10.07	-1.3797
10.075	-1.29028
10.08	-0.960693
10.085	-1.27075
10.09	-1.26007
10.095	-1.11145
10.1	-1.16547
10.105	-1.30066
10.11	-0.919495
10.115	-1.26678
10.12	-1.24756
10.125	-1.30554
10.13	-1.17188
10.135	-1.24084
10.14	-1.31073
10.145	-1.16699
10.15	-1.13098
10.155	-0.779419
10.16	-1.29028
10.165	-1.18286
10.17	-1.52069
10.175	-1.11694
10.18	-1.42578
10.185	-1.28662
10.19	-1.34033
10.195	-0.965576
10.2	-1.16547
10.205	-1.25641
10.21	-1.13312
10.215	-1.41113
10.22	-1.43066
10.225	-1.32263
10.23	-1.07361
10.235	-1.3443
10.24	-1.34369
10.245	-1.35406
10.25	-1.11908
10.255	-1.31409
10.26	-1.22406
10.265	-1.18378
10.27	-1.07605
10.275	-1.3324
10.28	-1.31042
10.285	-1.36627
10.29	-1.25702
10.295	-1.26343
10.3	-1.21887
10.305	-1.0199
10.31	-1.4389
10.315	-1.36292
10.32	-1.27289
10.325	-1.18317
10.33	-1.08887
10.335	-1.40503
10.34	-1.21002
10.345	-1.0202
10.35	-1.36139
10.355	-1.29639
10.36	-1.21887
10.365	-1.35742
10.37	-1.0965
10.375	-1.10748
10.38	-1.38855
10.385	-1.00861
10.39	-1.52618
10.395	-1.07483
10.4	-1.42548
10.405	-1.28601
10.41	-1.28876
10.415	-1.25336
10.42	-1.34705
10.425	-1.32874
10.43	-0.939941
10.435	-1.41388
10.44	-1.37421
10.445	-1.25153
10.45	-1.39404
10.455	-1.2854
10.46	-1.08002
10.465	-1.60431
10.47	-1.13922
10.475	-1.35895
10.48	-1.41998
10.485	-1.41296
10.49	-1.05133
10.495	-1.40442
10.5	-1.22742
10.505	-1.35223
10.51	-1.23901
10.515	-1.25732
10.52	-1.1908
10.525	-1.32599
10.53	-1.13617
10.535	-1.19812
10.54	-1.39648
10.545	-1.51672
10.55	-1.11053
10.555	-1.45782
10.56	-1.29303
10.565	-1.28265
10.57	-1.23047
10.575	-1.21979
10.58	-1.20117
10.585	-1.43066
10.59	-1.21429
10.595	-1.38733
10.6	-1.35162
10.605	-1.36383
10.61	-1.11176
10.615	-1.41052
10.62	-1.43585
10.625	-1.37146
10.63	-1.47491
10.635	-1.09894
10.64	-1.1734
10.645	-1.45599
10.65	-1.37085
10.655	-1.17889
10.66	-1.6626
10.665	-1.19446
10.67	-1.53534
10.675	-1.43219
10.68	-1.2616
10.685	-1.19812
10.69	-1.38245
10.695	-1.42548
10.7	-1.32813
10.705	-1.30066
10.71	-1.36597
10.715	-1.31287
10.72	-1.25336
10.725	-1.4386
10.73	-1.36536
10.735	-1.45538
10.74	-1.05865
10.745	-1.35406
10.75	-1.05499
10.755	-1.62689
10.76	-1.22498
10.765	-1.492
10.77	-1.4267
10.775	-1.19202
10.78	-1.41846
10.785	-1.18896
10.79	-1.32416
10.795	-1.38611
10.8	-1.31622
10.805	-1.38702
10.81	-1.05957
10.815	-1.46484
10.82	-1.42517
10.825	-1.23352
10.83	-1.44409
10.835	-1.37482
10.84	-1.31592
10.845	-1.32599
10.85	-1.46088
10.855	-1.49017
10.86	-1.38702
10.865	-1.21643
10.87	-1.29822
10.875	-1.42242
10.88	-1.35101
10.885	-1.3559
10.89	-0.888062
10.895	-1.44135
10.9	-1.4325
10.905	-1.2677
10.91	-1.41022
10.915	-1.40656
10.92	-1.25153
10.925	-1.36902
10.93	-1.32263
10.935	-1.43341
10.94	-1.22894
10.945	-1.30066
10.95	-1.23199
10.955	-1.51428
10.96	-1.35681
10.965	-1.42639
10.97	-1.1438
10.975	-1.26892
10.98	-1.33545
10.985	-1.25885
10.99	-1.29791
10.995	-1.44287
11	-1.26373
11.005	-1.40839
11.01	-1.41449
11.015	-1.44012
11.02	-1.3858
11.025	-1.30859
11.03	-1.38733
11.035	-1.1908
11.04	-1.4035
11.045	-1.39069
11.05	-1.0376
11.055	-1.59973
11.06	-1.44867
11.065	-1.30005
11.07	-1.45233
11.075	-1.19598
11.08	-1.51428
11.085	-1.38397
11.09	-1.34796
11.095	-1.31866
11.1	-1.36108
11.105	-0.951843
11.11	-1.44958
11.115	-1.40228
11.12	-1.23993
11.125	-1.50787
11.13	-1.46332
11.135	-1.18408
11.14	-0.89447
11.145	-1.54449
11.15	-1.17981
11.155	-1.13434
11.16	-1.14563
11.165	-1.40472
11.17	-1.51489
11.175	-1.28632
11.18	-1.39832
11.185	-1.42853
11.19	-1.31012
11.195	-1.39862
11.2	-1.10535
11.205	-1.55212
11.21	-1.39008
11.215	-1.46576
11.22	-1.32538
11.225	-1.37512
11.23	-1.43799
11.235	-1.21857
11.24	-1.47949
11.245	-1.38275
11.25	-1.31927
11.255	-1.34064
11.26	-1.18042
11.265	-1.65497
11.27	-1.52985
11.275	-1.2619
11.28	-1.52222
11.285	-1.51825
11.29	-1.22742
11.295	-1.41327
11.3	-1.19263
11.305	-1.46729
11.31	-1.37512
11.315	-1.45813
11.32	-1.31561
11.325	-1.51917
11.33	-1.22894
11.335	-1.60339
11.34	-1.18958
11.345	-1.4563
11.35	-1.31073
11.355	-1.75293
11.36	-1.45996
11.365	-1.23016
11.37	-1.51337
11.375	-1.48041
11.38	-1.14899
11.385	-1.59119
11.39	-1.59302
11.395	-1.4032
11.4	-1.54083
11.405	-1.37054
11.41	-1.33179
11.415	-1.30402
11.42	-1.53442
11.425	-1.53534
11.43	-1.36688
11.435	-1.58752
11.44	-1.52222
11.445	-1.50726
11.45	-1.26251
11.455	-1.40656
11.46	-1.3855
11.465	-1.42059
11.47	-1.61652
11.475	-1.4798
11.48	-1.52252
11.485	-1.38855
11.49	-1.51367
11.495	-1.11481
11.5	-1.48376
11.505	-1.60583
11.51	-1.41418
11.515	-1.47766
11.52	-1.45966
11.525	-1.54327
11.53	-1.55518
11.535	-1.42822
11.54	-1.36536
11.545	-1.22711
11.55	-1.81061
11.555	-1.52313
11.56	-1.5155
11.565	-1.58508
11.57	-1.26465
11.575	-1.47675
11.58	-1.61621
11.585	-1.44867
11.59	-1.4212
11.595	-1.52405
11.6	-1.30981
11.605	-1.52832
11.61	-1.45172
11.615	-1.39374
11.62	-1.39191
11.625	-1.52008
11.63	-1.58569
11.635	-1.22375
11.64	-1.47827
11.645	-1.53046
11.65	-1.34888
11.655	-1.42975
11.66	-1.3855
11.665	-1.71021
11.67	-1.5863
11.675	-1.33057
11.68	-1.34583
11.685	-1.52557
11.69	-1.61896
11.695	-1.51276
11.7	-1.25458
11.705	-1.42914
11.71	-1.44196
11.715	-1.48346
11.72	-1.35681
11.725	-1.55701
11.73	-1.64093
11.735	-1.19934
11.74	-1.56708
11.745	-1.48773
11.75	-1.46729
11.755	-1.49567
11.76	-1.54144
11.765	-1.4035
11.77	-1.51917
11.775	-1.58356
11.78	-1.43829
11.785	-1.57684
11.79	-1.44196
11.795	-1.54175
11.8	-1.45172
11.805	-1.4325
11.81	-1.43097
11.815	-1.54175
11.82	-1.31531
11.825	-1.67725
11.83	-1.54419
11.835	-1.54297
11.84	-1.39465
11.845	-1.46851
11.85	-1.52008
11.855	-1.51733
11.86	-1.49475
11.865	-1.49536
11.87	-1.55334
11.875	-1.4801
11.88	-1.42273
11.885	-1.45416
11.89	-1.50513
11.895	-1.53503
11.9	-1.43616
11.905	-1.51306
11.91	-1.4978
11.915	-1.50116
11.92	-1.49567
11.925	-1.62842
11.93	-1.48163
11.935	-1.46149
11.94	-1.51703
11.945	-1.46942
11.95	-1.55182
11.955	-1.49017
11.96	-1.56799
11.965	-1.54877
11.97	-1.54633
11.975	-1.45264
11.98	-1.43127
11.985	-1.62354
11.99	-1.53015
11.995	-1.47552
12	-1.45813
12.005	-1.51154
12.01	-1.48254
12.015	-1.44745
12.02	-1.55212
12.025	-1.58203
12.03	-1.54449
12.035	-1.51764
12.04	-1.53351
12.045	-1.56433
12.05	-1.52802
12.055	-1.54541
12.06	-1.55426
12.065	-1.55029
12.07	-1.5509
12.075	-1.53931
12.08	-1.56036
12.085	-1.51245
12.09	-1.521
12.095	-1.55365
12.1	-1.57013
12.105	-1.57532
12.11	-1.5567
12.115	-1.54877
12.12	-1.56036
12.125	-1.57471
12.13	-1.55762
12.135	-1.54877
12.14	-1.56952
12.145	-1.5741
12.15	-1.55945
12.155	-1.54175
12.16	-1.57227
12.165	-1.56708
12.17	-1.5509
12.175	-1.54419
12.18	-1.54724
12.185	-1.55731
12.19	-1.54358
12.195	-1.53748
12.2	-1.55304
12.205	-1.56006
12.21	-1.54236
12.215	-1.53687
12.22	-1.55273
12.225	-1.54602
12.23	-1.53595
12.235	-1.5271
12.24	-1.54419
12.245	-1.54724
12.25	-1.5271
12.255	-1.5094
12.26	-1.52954
12.265	-1.539
12.27	-1.51306
12.275	-1.50299
12.28	-1.51917
12.285	-1.53687
12.29	-1.52069
12.295	-1.50421
12.3	-1.51825
12.305	-1.53931
12.31	-1.52466
12.315	-1.51489
12.32	-1.52252
12.325	-1.54205
12.33	-1.52649
12.335	-1.51611
12.34	-1.51337
12.345	-1.53229
12.35	-1.52863
12.355	-1.51459
12.36	-1.51245
12.365	-1.5332
12.37	-1.53229
12.375	-1.51245
12.38	-1.52283
12.385	-1.53412
12.39	-1.53534
12.395	-1.5097
12.4	-1.52191
12.405	-1.5448
12.41	-1.54083
12.415	-1.51794
12.42	-1.52954
12.425	-1.54541
12.43	-1.54236
12.435	-1.52039
12.44	-1.52435
12.445	-1.55304
12.45	-1.5387
12.455	-1.51917
12.46	-1.52618
12.465	-1.54633
12.47	-1.53503
12.475	-1.51642
12.48	-1.52222
12.485	-1.54022
12.49	-1.52832
12.495	-1.5155
12.5	-1.52374
12.505	-1.53595
12.51	-1.52435
12.515	-1.5094
12.52	-1.52039
12.525	-1.54083
12.53	-1.52466
12.535	-1.50818
12.54	-1.51672
12.545	-1.53503
12.55	-1.51398
12.555	-1.50452
12.56	-1.52802
12.565	-1.53625
12.57	-1.52679
12.575	-1.51489
12.58	-1.51459
12.585	-1.52588
12.59	-1.51245
12.595	-1.49811
12.6	-1.50543
12.605	-1.51886
12.61	-1.49994
12.615	-1.48102
12.62	-1.49719
12.625	-1.50146
12.63	-1.49139
12.635	-1.47583
12.64	-1.48102
12.645	-1.49323
12.65	-1.48315
12.655	-1.46545
12.66	-1.46423
12.665	-1.48376
12.67	-1.45905
12.675	-1.4444
12.68	-1.45233
12.685	-1.46149
12.69	-1.44653
12.695	-1.43036
12.7	-1.43402
12.705	-1.44623
12.71	-1.43433
12.715	-1.41235
12.72	-1.42456
12.725	-1.44043
12.73	-1.4212
12.735	-1.40289
12.74	-1.41113
12.745	-1.42822
12.75	-1.40289
12.755	-1.39252
12.76	-1.39862
12.765	-1.39984
12.77	-1.3855
12.775	-1.36078
12.78	-1.36688
12.785	-1.38763
12.79	-1.3681
12.795	-1.34766
12.8	-1.36261
12.805	-1.36627
12.81	-1.34949
12.815	-1.33209
12.82	-1.33698
12.825	-1.35284
12.83	-1.3385
12.835	-1.31714
12.84	-1.32355
12.845	-1.33026
12.85	-1.31531
12.855	-1.29608
12.86	-1.30402
12.865	-1.31531
12.87	-1.28784
12.875	-1.27075
12.88	-1.27533
12.885	-1.28784
12.89	-1.27014
12.895	-1.24451
12.9	-1.25458
12.905	-1.26831
12.91	-1.25397
12.915	-1.24023
12.92	-1.24268
12.925	-1.25183
12.93	-1.24268
12.935	-1.21948
12.94	-1.23322
12.945	-1.24634
12.95	-1.23352
12.955	-1.21185
12.96	-1.22589
12.965	-1.2384
12.97	-1.23016
12.975	-1.21307
12.98	-1.22437
12.985	-1.23871
12.99	-1.22986
12.995	-1.2088
13	-1.21857
13.005	-1.23596
13.01	-1.22406
13.015	-1.2027
13.02	-1.2149
13.025	-1.23199
13.03	-1.21063
13.035	-1.18805
13.04	-1.19781
13.045	-1.20819
13.05	-1.19415
13.055	-1.17004
13.06	-1.16943
13.065	-1.185
13.07	-1.17035
13.075	-1.15021
13.08	-1.15356
13.085	-1.17035
13.09	-1.15387
13.095	-1.12549
13.1	-1.13831
13.105	-1.15143
13.11	-1.14136
13.115	-1.11816
13.12	-1.12488
13.125	-1.14777
13.13	-1.13861
13.135	-1.11877
13.14	-1.13525
13.145	-1.14899
13.15	-1.13373
13.155	-1.11664
13.16	-1.12671
13.165	-1.13617
13.17	-1.12854
13.175	-1.10382
13.18	-1.10107
13.185	-1.11969
13.19	-1.10687
13.195	-1.08643
13.2	-1.09894
13.205	-1.10931
13.21	-1.09589
13.215	-1.08398
13.22	-1.08673
13.225	-1.10138
13.23	-1.09619
13.235	-1.08185
13.24	-1.08521
13.245	-1.10535
13.25	-1.09314
13.255	-1.07239
13.26	-1.08734
13.265	-1.10138
13.27	-1.09222
13.275	-1.07697
13.28	-1.091
13.285	-1.10962
13.29	-1.09802
13.295	-1.09192
13.3	-1.10291
13.305	-1.12366
13.31	-1.11786
13.315	-1.09894
13.32	-1.12274
13.325	-1.14349
13.33	-1.13892
13.335	-1.12671
13.34	-1.13861
13.345	-1.15723
13.35	-1.15753
13.355	-1.14441
13.36	-1.1499
13.365	-1.17279
13.37	-1.16455
13.375	-1.15387
13.38	-1.16638
13.385	-1.18103
13.39	-1.17737
13.395	-1.15753
13.4	-1.17065
13.405	-1.19629
13.41	-1.18713
13.415	-1.17157
13.42	-1.19049
13.425	-1.21033
13.43	-1.1972
13.435	-1.17706
13.44	-1.19354
13.445	-1.21521
13.45	-1.203
13.455	-1.19019
13.46	-1.19843
13.465	-1.2204
13.47	-1.21338
13.475	-1.18591
13.48	-1.20941
13.485	-1.22223
13.49	-1.21216
13.495	-1.20026
13.5	-1.21368
13.505	-1.23474
13.51	-1.21613
13.515	-1.2088
13.52	-1.2149
13.525	-1.22803
13.53	-1.22375
13.535	-1.20697
13.54	-1.2207
13.545	-1.23535
13.55	-1.22742
13.555	-1.20941
13.56	-1.22742
13.565	-1.24451
13.57	-1.23505
13.575	-1.22375
13.58	-1.2262
13.585	-1.25122
13.59	-1.24023
13.595	-1.21826
13.6	-1.22986
13.605	-1.24542
13.61	-1.23932
13.615	-1.21613
13.62	-1.23352
13.625	-1.24542
13.63	-1.23474
13.635	-1.2204
13.64	-1.23199
13.645	-1.25427
13.65	-1.24329
13.655	-1.22375
13.66	-1.23016
13.665	-1.25397
13.67	-1.24146
13.675	-1.22772
13.68	-1.23993
13.685	-1.25336
13.69	-1.25092
13.695	-1.22864
13.7	-1.23688
13.705	-1.25824
13.71	-1.24634
13.715	-1.23108
13.72	-1.24634
13.725	-1.26617
13.73	-1.24481
13.735	-1.23474
13.74	-1.24573
13.745	-1.27014
13.75	-1.25244
13.755	-1.23383
13.76	-1.24176
13.765	-1.26526
13.77	-1.24878
13.775	-1.22986
13.78	-1.25092
13.785	-1.26434
13.79	-1.25336
13.795	-1.23474
13.8	-1.24725
13.805	-1.27136
13.81	-1.25305
13.815	-1.23138
13.82	-1.24817
13.825	-1.26953
13.83	-1.25275
13.835	-1.23322
13.84	-1.24939
13.845	-1.26282
13.85	-1.24756
13.855	-1.23169
13.86	-1.24969
13.865	-1.26282
13.87	-1.25153
13.875	-1.23322
13.88	-1.24634
13.885	-1.25977
13.89	-1.25488
13.895	-1.23871
13.9	-1.24664
13.905	-1.26465
13.91	-1.24878
13.915	-1.23505
13.92	-1.24939
13.925	-1.25244
13.93	-1.24573
13.935	-1.23322
13.94	-1.24329
13.945	-1.26221
13.95	-1.24298
13.955	-1.22955
13.96	-1.24664
13.965	-1.25854
13.97	-1.24023
13.975	-1.22864
13.98	-1.24329
13.985	-1.2677
13.99	-1.26404
13.995	-1.23932
14	-1.25946
14.005	-1.2677
14.01	-1.25763
14.015	-1.23749
14.02	-1.25244
14.025	-1.27441
14.03	-1.25336
14.035	-1.24084
14.04	-1.24664
14.045	-1.26831
14.05	-1.25397
14.055	-1.2323
14.06	-1.25214
14.065	-1.27045
14.07	-1.25214
14.075	-1.23047
14.08	-1.25183
14.085	-1.27228
14.09	-1.25458
14.095	-1.23718
14.1	-1.24939
14.105	-1.26678
14.11	-1.25122
14.115	-1.23352
14.12	-1.24817
14.125	-1.26892
14.13	-1.25
14.135	-1.23047
14.14	-1.24695
14.145	-1.26099
14.15	-1.24146
14.155	-1.22345
14.16	-1.24481
14.165	-1.25916
14.17	-1.24054
14.175	-1.22437
14.18	-1.23993
14.185	-1.26617
14.19	-1.24603
14.195	-1.21979
14.2	-1.23993
14.205	-1.25854
14.21	-1.23718
14.215	-1.21674
14.22	-1.2381
14.225	-1.25092
14.23	-1.23413
14.235	-1.20911
14.24	-1.23077
14.245	-1.24329
14.25	-1.22498
14.255	-1.21063
14.26	-1.22498
14.265	-1.23932
14.27	-1.21857
14.275	-1.203
14.28	-1.21643
14.285	-1.2323
14.29	-1.21796
14.295	-1.19659
14.3	-1.21399
14.305	-1.22772
14.31	-1.20941
14.315	-1.19202
14.32	-1.21277
14.325	-1.21948
14.33	-1.20361
14.335	-1.18683
14.34	-1.19598
14.345	-1.21857
14.35	-1.19965
14.355	-1.18134
14.36	-1.19598
14.365	-1.21857
14.37	-1.19293
14.375	-1.1734
14.38	-1.1908
14.385	-1.20972
14.39	-1.1853
14.395	-1.1618
14.4	-1.18225
14.405	-1.20178
14.41	-1.18591
14.415	-1.1676
14.42	-1.17981
14.425	-1.20209
14.43	-1.18378
14.435	-1.16699
14.44	-1.18805
14.445	-1.19598
14.45	-1.17645
14.455	-1.16547
14.46	-1.17828
14.465	-1.19507
14.47	-1.17493
14.475	-1.16089
14.48	-1.17065
14.485	-1.19965
14.49	-1.17828
14.495	-1.15967
14.5	-1.16699
14.505	-1.18866
14.51	-1.17676
14.515	-1.15997
14.52	-1.17645
14.525	-1.19598
14.53	-1.17432
14.535	-1.15295
14.54	-1.17828
14.545	-1.18988
14.55	-1.1792
14.555	-1.15845
14.56	-1.17676
14.565	-1.18225
14.57	-1.17493
14.575	-1.16791
14.58	-1.18286
14.585	-1.20178
14.59	-1.18225
14.595	-1.16455
14.6	-1.17584
14.605	-1.19476
14.61	-1.17676
14.615	-1.16211
14.62	-1.17737
14.625	-1.19873
14.63	-1.1853
14.635	-1.16638
14.64	-1.18134
14.645	-1.20239
14.65	-1.18683
14.655	-1.16974
14.66	-1.19019
14.665	-1.20819
14.67	-1.19019
14.675	-1.17554
14.68	-1.18622
14.685	-1.20667
14.69	-1.18866
14.695	-1.17126
14.7	-1.1972
14.705	-1.21735
14.71	-1.19019
14.715	-1.17615
14.72	-1.19202
14.725	-1.21002
14.73	-1.20117
14.735	-1.18469
14.74	-1.19263
14.745	-1.21246
14.75	-1.20026
14.755	-1.17889
14.76	-1.19659
14.765	-1.22314
14.77	-1.19843
14.775	-1.17523
14.78	-1.18561
14.785	-1.2027
14.79	-1.20667
14.795	-1.18958
14.8	-1.19781
14.805	-1.21704
14.81	-1.21124
14.815	-1.18347
14.82	-1.20514
14.825	-1.22253
14.83	-1.20361
14.835	-1.18683
14.84	-1.21338
14.845	-1.23199
14.85	-1.20514
14.855	-1.20209
14.86	-1.21674
14.865	-1.22498
14.87	-1.22223
14.875	-1.19446
14.88	-1.21338
14.885	-1.23444
14.89	-1.20941
14.895	-1.18988
14.9	-1.22772
14.905	-1.23505
14.91	-1.21796
14.915	-1.20758
14.92	-1.21704
14.925	-1.24298
14.93	-1.22681
14.935	-1.21185
14.94	-1.22192
14.945	-1.25641
14.95	-1.2384
14.955	-1.21033
14.96	-1.23688
14.965	-1.25641
14.97	-1.23749
14.975	-1.22803
14.98	-1.2384
14.985	-1.25977
14.99	-1.24481
14.995	-1.23016
15	-1.24664
15.005	-1.26831
15.01	-1.24481
15.015	-1.23077
15.02	-1.25305
15.025	-1.26953
15.03	-1.25702
15.035	-1.24817
15.04	-1.26343
15.045	-1.27563
15.05	-1.25916
15.055	-1.24817
15.06	-1.26007
15.065	-1.29181
15.07	-1.2619
15.075	-1.25122
15.08	-1.27289
15.085	-1.29303
15.09	-1.27625
15.095	-1.25854
15.1	-1.27472
15.105	-1.2915
15.11	-1.26678
15.115	-1.24969
15.12	-1.26862
15.125	-1.3028
15.13	-1.27197
15.135	-1.24786
15.14	-1.28113
15.145	-1.29761
15.15	-1.28326
15.155	-1.26709
15.16	-1.27594
15.165	-1.29181
15.17	-1.27197
15.175	-1.24786
15.18	-1.27777
15.185	-1.29364
15.19	-1.27899
15.195	-1.22803
15.2	-1.25824
15.205	-1.28174
15.21	-1.28296
15.215	-1.2149
15.22	-1.1795
15.225	-1.24054
15.23	-1.28693
15.235	-1.26068
15.24	-1.05103
15.245	-0.976257
15.25	-1.16974
15.255	-1.33789
15.26	-1.33575
15.265	-1.32782
15.27	-1.2674
15.275	-1.24847
15.28	-1.27411
15.285	-1.29028
15.29	-1.23474
15.295	-1.16669
15.3	-1.12762
15.305	-1.26801
15.31	-1.25061
15.315	-1.2085
15.32	-0.965576
15.325	-1.2384
15.33	-1.24146
15.335	-1.22192
15.34	-1.23138
15.345	-1.29456
15.35	-1.23596
15.355	-1.07452
15.36	-1.10718
15.365	-1.16058
15.37	-1.08063
15.375	-1.18988
15.38	-1.29578
15.385	-1.19751
15.39	-1.18744
15.395	-1.15051
15.4	-1.22559
15.405	-1.25122
15.41	-1.28052
15.415	-1.19263
15.42	-1.09344
15.425	-1.32019
15.43	-1.2561
15.435	-1.23993
15.44	-1.28021
15.445	-1.27045
15.45	-1.26038
15.455	-1.09283
15.46	-1.1203
15.465	-1.35498
15.47	-1.10962
15.475	-1.10901
15.48	-1.34125
15.485	-1.37299
15.49	-1.18225
15.495	-1.297
15.5	-1.29456
15.505	-1.14014
15.51	-1.27655
15.515	-1.01685
15.52	-1.25641
15.525	-1.31195
15.53	-1.39801
15.535	-1.27686
15.54	-1.18286
15.545	-1.13586
15.55	-1.19873
15.555	-1.17523
15.56	-1.18378
15.565	-1.14319
15.57	-1.41266
15.575	-1.29639
15.58	-1.15601
15.585	-1.22223
15.59	-1.33179
15.595	-1.27319
15.6	-1.25275
15.605	-1.35284
15.61	-1.37238
15.615	-1.32202
15.62	-1.00433
15.625	-1.3443
15.63	-1.24146
15.635	-1.0202
15.64	-1.23535
15.645	-1.38184
15.65	-1.29974
15.655	-1.03363
15.66	-1.36688
15.665	-1.24817
15.67	-1.11023
15.675	-0.939636
15.68	-1.36078
15.685	-1.34766
15.69	-1.33728
15.695	-0.476074
15.7	-1.07391
15.705	-1.50208
15.71	-1.40259
15.715	-1.33606
15.72	-1.30615
15.725	-1.26678
15.73	-0.961914
15.735	-1.23505
15.74	-1.1911
15.745	-1.15631
15.75	-1.17828
15.755	-1.23779
15.76	-1.12885
15.765	-1.14532
15.77	-1.37726
15.775	-1.30676
15.78	-1.20758
15.785	-1.36292
15.79	-1.05072
15.795	-1.24237
15.8	-1.24573
15.805	-1.3501
15.81	-0.673523
15.815	-1.00739
15.82	-1.38794
15.825	-1.33057
15.83	-1.0965
15.835	-1.34399
15.84	-1.08795
15.845	-1.3736
15.85	-0.938416
15.855	-1.17493
15.86	-1.20575
15.865	-1.16119
15.87	-1.26953
15.875	-1.22925
15.88	-0.905762
15.885	-1.00922
15.89	-1.34918
15.895	-1.27991
15.9	-1.13342
15.905	-1.09863
15.91	-1.02966
15.915	-1.15234
15.92	-1.15509
15.925	-1.10199
15.93	-1.30341
15.935	-1.22711
15.94	-1.29547
15.945	-1.1972
15.95	-1.00525
15.955	-1.21399
15.96	-1.14105
15.965	-1.12457
15.97	-0.548096
15.975	-1.09161
15.98	-1.12549
15.985	-1.10657
15.99	-1.2262
15.995	-1.1441
16	-1.08734
16.005	-1.0611
16.01	-1.14044
16.015	-0.905457
16.02	-1.34369
16.025	-0.9021
16.03	-1.23352
16.035	-1.17065
16.04	-1.19415
16.045	-1.12793
16.05	-1.04065
16.055	-1.03394
16.06	-1.08459
16.065	-0.695801
16.07	-1.3562
16.075	-0.881653
16.08	-1.15906
16.085	-1.21124
16.09	-1.13373
16.095	-0.973511
16.1	-0.974426
16.105	-1.10382
16.11	-1.11664
16.115	-0.963135
16.12	-1.24359
16.125	-1.14319
16.13	-0.906372
16.135	-1.11816
16.14	-1.05896
16.145	-1.21948
16.15	-1.07086
16.155	-0.65155
16.16	-1.46057
16.165	-1.21155
16.17	-1.1795
16.175	-1.05713
16.18	-1.04889
16.185	-1.15295
16.19	-0.795593
16.195	-1.24237
16.2	-1.07483
16.205	-1.03271
16.21	-1.09619
16.215	-1.12793
16.22	-1.14044
16.225	-1.17126
16.23	-1.00983
16.235	-1.15448
16.24	-0.966492
16.245	-0.978394
16.25	-1.25854
16.255	-1.10809
16.26	-1.08276
16.265	-0.874023
16.27	-1.07513
16.275	-1.08063
16.28	-1.09985
16.285	-1.06415
16.29	-1.14716
16.295	-0.982056
16.3	-1.22314
16.305	-0.927734
16.31	-0.977783
16.315	-1.21185
16.32	-1.09863
16.325	-0.514221
16.33	-0.995483
16.335	-1.17737
16.34	-1.0965
16.345	-1.16943
16.35	-0.877075
16.355	-0.940552
16.36	-1.13922
16.365	-1.21643
16.37	-1.25336
16.375	-1.06781
16.38	-0.976563
16.385	-1.21704
16.39	-0.837708
16.395	-1.25702
16.4	-1.25
16.405	-1.19171
16.41	-1.10107
16.415	-1.17432
16.42	-0.93811
16.425	-1.13678
16.43	-0.923462
16.435	-1.3269
16.44	-1.15631
16.445	-1.06171
16.45	-1.16852
16.455	-1.17157
16.46	-0.807495
16.465	-1.16974
16.47	-1.21735
16.475	-0.944214
16.48	-1.1731
16.485	-1.23474
16.49	-1.17249
16.495	-1.04431
16.5	-1.15082
16.505	-0.979004
16.51	-0.960083
16.515	-1.26617
16.52	-1.08673
16.525	-1.13129
16.53	-1.21765
16.535	-1.11145
16.54	-0.942993
16.545	-1.19812
16.55	-1.06354
16.555	-1.11481
16.56	-1.19751
16.565	-1.11786
16.57	-0.950317
16.575	-1.03943
16.58	-1.20148
16.585	-1.19965
16.59	-1.16608
16.595	-1.01959
16.6	-1.08215
16.605	-1.13556
16.61	-1.11267
16.615	-1.00342
16.62	-0.921631
16.625	-1.22253
16.63	-1.04462
16.635	-1.008
16.64	-1.17615
16.645	-1.19629
16.65	-1.05438
16.655	-1.02631
16.66	-0.726624
16.665	-1.39526
16.67	-1.13983
16.675	-1.05988
16.68	-1.11542
16.685	-1.23077
16.69	-1.0672
16.695	-1.15387
16.7	-1.18805
16.705	-1.03455
16.71	-1.23047
16.715	-0.743103
16.72	-1.13373
16.725	-1.18195
16.73	-1.18866
16.735	-1.04279
16.74	-1.05652
16.745	-1.20758
16.75	-1.10168
16.755	-1.1615
16.76	-0.760498
16.765	-1.22772
16.77	-1.16455
16.775	-1.06018
16.78	-1.0675
16.785	-1.21735
16.79	-1.01715
16.795	-0.917969
16.8	-1.20026
16.805	-1.13251
16.81	-1.19934
16.815	-1.04065
16.82	-1.18256
16.825	-1.30371
16.83	-1.17432
16.835	-1.10016
16.84	-1.14532
16.845	-1.13586
16.85	-1.03088
16.855	-1.05408
16.86	-1.01959
16.865	-1.10626
16.87	-1.026
16.875	-1.31744
16.88	-1.08612
16.885	-1.21979
16.89	-1.13922
16.895	-1.04736
16.9	-1.24146
16.905	-1.07361
16.91	-1.18774
16.915	-1.08978
16.92	-0.942993
16.925	-1.19568
16.93	-1.2912
16.935	-1.16699
16.94	-1.05225
16.945	-1.20697
16.95	-1.09955
16.955	-1.08795
16.96	-1.20514
16.965	-1.19324
16.97	-1.07452
16.975	-1.08429
16.98	-1.17401
16.985	-1.1618
16.99	-1.19904
16.995	-1.11298
17	-1.15692
17.005	-1.19659
17.01	-1.24603
17.015	-1.16974
17.02	-1.17432
17.025	-1.06262
17.03	-1.06964
17.035	-1.17279
17.04	-1.27136
17.045	-1.04126
17.05	-1.19019
17.055	-1.0495
17.06	-1.28662
17.065	-1.18164
17.07	-1.13525
17.075	-1.15173
17.08	-1.10321
17.085	-1.27869
17.09	-1.24359
17.095	-1.13464
17.1	-1.14899
17.105	-1.15906
17.11	-1.09375
17.115	-0.911865
17.12	-1.15814
17.125	-1.28998
17.13	-1.21033
17.135	-1.03119
17.14	-1.18103
17.145	-1.23016
17.15	-1.09802
17.155	-1.0556
17.16	-1.03424
17.165	-1.24695
17.17	-1.36047
17.175	-0.995483
17.18	-1.14502
17.185	-1.11755
17.19	-1.28662
17.195	-0.907898
17.2	-1.37451
17.205	-1.30493
17.21	-1.27289
17.215	-0.847473
17.22	-1.0498
17.225	-1.36536
17.23	-1.07391
17.235	-1.23688
17.24	-1.16028
17.245	-1.23108
17.25	-1.04675
17.255	-1.17279
17.26	-1.06232
17.265	-1.2735
17.27	-1.17554
17.275	-1.09131
17.28	-1.07452
17.285	-1.41754
17.29	-1.21857
17.295	-0.890808
17.3	-1.3443
17.305	-1.12305
17.31	-1.18011
17.315	-1.02203
17.32	-1.26862
17.325	-1.16913
17.33	-1.2027
17.335	-1.16791
17.34	-1.22192
17.345	-1.10382
17.35	-1.09222
17.355	-1.03027
17.36	-1.34064
17.365	-1.20453
17.37	-1.04889
17.375	-1.31226
17.38	-0.92926
17.385	-1.34827
17.39	-1.19659
17.395	-1.1853
17.4	-1.19629
17.405	-0.912781
17.41	-1.31653
17.415	-1.19537
17.42	-1.11938
17.425	-1.27136
17.43	-1.32446
17.435	-0.795898
17.44	-1.03729
17.445	-1.41174
17.45	-0.859985
17.455	-1.19446
17.46	-1.13281
17.465	-1.33911
17.47	-1.25031
17.475	-1.12061
17.48	-1.2384
17.485	-1.24084
17.49	-1.19537
17.495	-1.29974
17.5	-1.15479
17.505	-1.3031
17.51	-1.27869
17.515	-1.29608
17.52	-1.1731
17.525	-0.955811
17.53	-1.21521
17.535	-1.30157
17.54	-1.08246
17.545	-1.13037
17.55	-1.03638
17.555	-1.33087
17.56	-1.05957
17.565	-1.12305
17.57	-1.23474
17.575	-1.18561
17.58	-1.38733
17.585	-1.10291
17.59	-1.25458
17.595	-1.20483
17.6	-1.04462
17.605	-1.24969
17.61	-1.2207
17.615	-1.1145
17.62	-1.29181
17.625	-1.19781
17.63	-1.10474
17.635	-1.21368
17.64	-1.26984
17.645	-1.31744
17.65	-1.03882
17.655	-1.14929
17.66	-1.30219
17.665	-1.18103
17.67	-0.964966
17.675	-1.38794
17.68	-0.788879
17.685	-1.29333
17.69	-1.32568
17.695	-1.23413
17.7	-1.20239
17.705	-1.22955
17.71	-1.06049
17.715	-1.39801
17.72	-1.29669
17.725	-1.1322
17.73	-1.15479
17.735	-1.44073
17.74	-1.13739
17.745	-0.982666
17.75	-1.35468
17.755	-1.25549
17.76	-1.08154
17.765	-1.32751
17.77	-1.16364
17.775	-1.04889
17.78	-1.2854
17.785	-1.14838
17.79	-1.25275
17.795	-1.22833
17.8	-1.15387
17.805	-1.22253
17.81	-1.37329
17.815	-1.24084
17.82	-1.16119
17.825	-1.27777
17.83	-0.953674
17.835	-1.25092
17.84	-1.26007
17.845	-1.20758
17.85	-1.12183
17.855	-1.44043
17.86	-1.24817
17.865	-1.24329
17.87	-1.27228
17.875	-1.25
17.88	-0.959473
17.885	-1.34613
17.89	-1.33301
17.895	-1.25397
17.9	-1.12457
17.905	-1.15936
17.91	-1.16272
17.915	-1.1618
17.92	-1.22803
17.925	-1.09161
17.93	-1.27106
17.935	-1.00433
17.94	-1.4151
17.945	-1.21521
17.95	-1.26404
17.955	-1.25702
17.96	-0.884399
17.965	-1.26373
17.97	-1.21826
17.975	-1.27472
17.98	-1.19598
17.985	-1.27716
17.99	-1.09955
17.995	-1.42273
18	-1.0968
18.005	-1.36292
18.01	-0.760193
18.015	-1.28326
18.02	-1.24695
18.025	-1.14044
18.03	-1.19568
18.035	-0.999146
18.04	-1.19965
18.045	-0.93689
18.05	-1.37909
18.055	-1.21582
18.06	-1.026
18.065	-1.29639
18.07	-1.31409
18.075	-1.22742
18.08	-1.32935
18.085	-1.21735
18.09	-1.18011
18.095	-1.29578
18.1	-1.32843
18.105	-1.02966
18.11	-1.16058
18.115	-1.0788
18.12	-1.37604
18.125	-1.29974
18.13	-1.24969
18.135	-1.23383
18.14	-1.23199
18.145	-1.23901
18.15	-1.39069
18.155	-1.07666
18.16	-1.11267
18.165	-1.35925
18.17	-1.31226
18.175	-1.17462
18.18	-1.14044
18.185	-1.24878
18.19	-1.22803
18.195	-1.18927
18.2	-1.34705
18.205	-1.29242
18.21	-1.33331
18.215	-1.2204
18.22	-1.26526
18.225	-1.3092
18.23	-1.34369
18.235	-1.32172
18.24	-1.28754
18.245	-1.32538
18.25	-1.31927
18.255	-1.30951
18.26	-1.31927
18.265	-1.29547
18.27	-1.31744
18.275	-1.2915
18.28	-1.30646
18.285	-1.33026
18.29	-1.31714
18.295	-1.30371
18.3	-1.32141
18.305	-1.32507
18.31	-1.28235
18.315	-1.32111
18.32	-1.32782
18.325	-1.32813
18.33	-1.34216
18.335	-1.27502
18.34	-1.3269
18.345	-1.32782
18.35	-1.32355
18.355	-1.34033
18.36	-1.34491
18.365	-1.35498
18.37	-1.33667
18.375	-1.32996
18.38	-1.34369
18.385	-1.34521
18.39	-1.3385
18.395	-1.32813
18.4	-1.34491
18.405	-1.3504
18.41	-1.34521
18.415	-1.33606
18.42	-1.34521
18.425	-1.34918
18.43	-1.33301
18.435	-1.33545
18.44	-1.33453
18.445	-1.33698
18.45	-1.3269
18.455	-1.31653
18.46	-1.3269
18.465	-1.32813
18.47	-1.32141
18.475	-1.315
18.48	-1.33362
18.485	-1.33392
18.49	-1.33331
18.495	-1.3208
18.5	-1.32507
18.505	-1.32813
18.51	-1.31866
18.515	-1.31561
18.52	-1.31805
18.525	-1.32599
18.53	-1.31714
18.535	-1.30829
18.54	-1.31622
18.545	-1.31653
18.55	-1.30646
18.555	-1.30737
18.56	-1.31195
18.565	-1.31592
18.57	-1.30829
18.575	-1.30768
18.58	-1.31836
18.585	-1.31714
18.59	-1.31073
18.595	-1.30981
18.6	-1.31409
18.605	-1.31805
18.61	-1.30981
18.615	-1.30493
18.62	-1.315
18.625	-1.32019
18.63	-1.30951
18.635	-1.30798
18.64	-1.31104
18.645	-1.315
18.65	-1.31012
18.655	-1.30493
18.66	-1.30096
18.665	-1.32111
18.67	-1.3092
18.675	-1.29608
18.68	-1.31714
18.685	-1.31104
18.69	-1.30005
18.695	-1.29974
18.7	-1.30554
18.705	-1.31317
18.71	-1.30432
18.715	-1.29852
18.72	-1.29822
18.725	-1.30829
18.73	-1.2973
18.735	-1.2915
18.74	-1.30096
18.745	-1.30188
18.75	-1.28967
18.755	-1.29639
18.76	-1.2973
18.765	-1.30707
18.77	-1.2912
18.775	-1.29303
18.78	-1.29913
18.785	-1.29395
18.79	-1.28571
18.795	-1.28052
18.8	-1.29364
18.805	-1.28754
18.81	-1.29242
18.815	-1.28723
18.82	-1.28448
18.825	-1.29822
18.83	-1.2854
18.835	-1.27716
18.84	-1.27808
18.845	-1.27991
18.85	-1.27411
18.855	-1.26007
18.86	-1.27441
18.865	-1.2735
18.87	-1.26617
18.875	-1.26038
18.88	-1.26404
18.885	-1.27594
18.89	-1.2561
18.895	-1.25214
18.9	-1.25275
18.905	-1.24969
18.91	-1.24878
18.915	-1.2323
18.92	-1.24786
18.925	-1.24207
18.93	-1.23352
18.935	-1.23535
18.94	-1.23657
18.945	-1.24664
18.95	-1.22925
18.955	-1.22528
18.96	-1.23077
18.965	-1.23047
18.97	-1.2207
18.975	-1.20972
18.98	-1.22559
18.985	-1.21918
18.99	-1.20728
18.995	-1.20728
19	-1.20056
19.005	-1.2146
19.01	-1.20178
19.015	-1.19232
19.02	-1.19568
19.025	-1.19659
19.03	-1.18042
19.035	-1.17798
19.04	-1.18469
19.045	-1.17706
19.05	-1.17249
19.055	-1.16608
19.06	-1.17218
19.065	-1.17615
19.07	-1.1615
19.075	-1.15509
19.08	-1.16058
19.085	-1.15662
19.09	-1.14838
19.095	-1.13708
19.1	-1.15082
19.105	-1.14838
19.11	-1.138
19.115	-1.13464
19.12	-1.13312
19.125	-1.13739
19.13	-1.12427
19.135	-1.11908
19.14	-1.1142
19.145	-1.11298
19.15	-1.0965
19.155	-1.09436
19.16	-1.08887
19.165	-1.08582
19.17	-1.07758
19.175	-1.06903
19.18	-1.06842
19.185	-1.07574
19.19	-1.05103
19.195	-1.04797
19.2	-1.05316
19.205	-1.04492
19.21	-1.03149
19.215	-1.02692
19.22	-1.03607
19.225	-1.0379
19.23	-1.03058
19.235	-1.03088
19.24	-1.03607
19.245	-1.03271
19.25	-1.02112
19.255	-1.02173
19.26	-1.02997
19.265	-1.02753
19.27	-1.01471
19.275	-1.01898
19.28	-1.02203
19.285	-1.02264
19.29	-1.01685
19.295	-1.01776
19.3	-1.01807
19.305	-1.02325
19.31	-1.00922
19.315	-1.00922
19.32	-1.01715
19.325	-1.01349
19.33	-1.00037
19.335	-0.997314
19.34	-1.00616
19.345	-1.00128
19.35	-0.989685
19.355	-0.987549
19.36	-0.986938
19.365	-0.98877
19.37	-0.980225
19.375	-0.971985
19.38	-0.98175
19.385	-0.97229
19.39	-0.967102
19.395	-0.961304
19.4	-0.969849
19.405	-0.969543
19.41	-0.96283
19.415	-0.954285
19.42	-0.964661
19.425	-0.96344
19.43	-0.953064
19.435	-0.958252
19.44	-0.958252
19.445	-0.958862
19.45	-0.947571
19.455	-0.949097
19.46	-0.959778
19.465	-0.954895
19.47	-0.957947
19.475	-0.961914
19.48	-0.979309
19.485	-0.98053
19.49	-0.969849
19.495	-0.970459
19.5	-0.976257
19.505	-0.98175
19.51	-0.970764
19.515	-0.969543
19.52	-0.978699
19.525	-0.973511
19.53	-0.973206
19.535	-0.968933
19.54	-0.982666
19.545	-0.975647
19.55	-0.970154
19.555	-0.970154
19.56	-0.978088
19.565	-0.970764
19.57	-0.967407
19.575	-0.972595
19.58	-0.98114
19.585	-0.979919
19.59	-0.977478
19.595	-0.975342
19.6	-0.995483
19.605	-0.987549
19.61	-0.976868
19.615	-0.978699
19.62	-0.988464
19.625	-0.982971
19.63	-0.975037
19.635	-0.980835
19.64	-0.990601
19.645	-0.98938
19.65	-0.97229
19.655	-0.977478
19.66	-0.985413
19.665	-0.983276
19.67	-0.979919
19.675	-0.979004
19.68	-0.98938
19.685	-0.992126
19.69	-0.979309
19.695	-0.979614
19.7	-0.992126
19.705	-0.995789
19.71	-0.983887
19.715	-0.982056
19.72	-1.0022
19.725	-0.997314
19.73	-0.978699
19.735	-0.990295
19.74	-0.999146
19.745	-0.992432
19.75	-0.983276
19.755	-0.98053
19.76	-0.997314
19.765	-0.995483
19.77	-0.982361
19.775	-0.984497
19.78	-0.999146
19.785	-1.00006
19.79	-0.986938
19.795	-0.989075
19.8	-0.996094
19.805	-0.999756
19.81	-0.986938
19.815	-0.990295
19.82	-0.999451
19.825	-0.997925
19.83	-0.992432
19.835	-0.987854
19.84	-1.00159
19.845	-1.00037
19.85	-0.987549
19.855	-0.995789
19.86	-0.99823
19.865	-0.999756
19.87	-0.986023
19.875	-0.988159
19.88	-0.993347
19.885	-0.993958
19.89	-0.984802
19.895	-0.986938
19.9	-0.999146
19.905	-0.993958
19.91	-0.980835
19.915	-0.983276
19.92	-0.996399
19.925	-0.990601
19.93	-0.984497
19.935	-0.975647
19.94	-0.991516
19.945	-0.985107
19.95	-0.969238
19.955	-0.980225
19.96	-0.994873
19.965	-0.990601
19.97	-0.983887
19.975	-0.985413
19.98	-0.993652
19.985	-0.990906
19.99	-0.985107
19.995	-0.982056
20	-0.994873
20.005	-0.993347
20.01	-0.976257
20.015	-0.982361
20.02	-0.99762
20.025	-0.991821
20.03	-0.975037
20.035	-0.990906
20.04	-0.992737
20.045	-0.98999
20.05	-0.98114
20.055	-0.984802
20.06	-0.993652
20.065	-0.993042
20.07	-0.980835
20.075	-0.990906
20.08	-0.998535
20.085	-0.999146
20.09	-0.982361
20.095	-0.990906
20.1	-1.00098
20.105	-0.997314
20.11	-0.984192
20.115	-0.989685
20.12	-1.00006
20.125	-0.992126
20.13	-0.981445
20.135	-0.985413
20.14	-1.00433
20.145	-0.993958
20.15	-0.985718
20.155	-0.993347
20.16	-1.00647
20.165	-1.0025
20.17	-0.986023
20.175	-0.983582
20.18	-1.00342
20.185	-0.997314
20.19	-0.979309
20.195	-0.98999
20.2	-1.0022
20.205	-0.995789
20.21	-0.986633
20.215	-0.98938
20.22	-1.00311
20.225	-0.99823
20.23	-0.983582
20.235	-0.987244
20.24	-1.00098
20.245	-0.994263
20.25	-0.982971
20.255	-0.988159
20.26	-1.00159
20.265	-1.00189
20.27	-0.979004
20.275	-0.984497
20.28	-1.00037
20.285	-0.991821
20.29	-0.978088
20.295	-0.983887
20.3	-1.00189
20.305	-0.991516
20.31	-0.979309
20.315	-0.986633
20.32	-0.993652
20.325	-0.988159
20.33	-0.975037
20.335	-0.982361
20.34	-0.99823
20.345	-0.986938
20.35	-0.970764
20.355	-0.977478
20.36	-0.993347
20.365	-0.988159
20.37	-0.96283
20.375	-0.977173
20.38	-0.98877
20.385	-0.979309
20.39	-0.973206
20.395	-0.968933
20.4	-0.992432
20.405	-0.979309
20.41	-0.971069
20.415	-0.967407
20.42	-0.982361
20.425	-0.976868
20.43	-0.956116
20.435	-0.975342
20.44	-0.98175
20.445	-0.975647
20.45	-0.970764
20.455	-0.97168
20.46	-0.984497
20.465	-0.97168
20.47	-0.959473
20.475	-0.963135
20.48	-0.977478
20.485	-0.967712
20.49	-0.955505
20.495	-0.964355
20.5	-0.977173
20.505	-0.968628
20.51	-0.953979
20.515	-0.959473
20.52	-0.965271
20.525	-0.968018
20.53	-0.951538
20.535	-0.958252
20.54	-0.980225
20.545	-0.963745
20.55	-0.958252
20.555	-0.956421
20.56	-0.963745
20.565	-0.958252
20.57	-0.945435
20.575	-0.950012
20.58	-0.957947
20.585	-0.949097
20.59	-0.942993
20.595	-0.947266
20.6	-0.96344
20.605	-0.956116
20.61	-0.945129
20.615	-0.951233
20.62	-0.967407
20.625	-0.953369
20.63	-0.951233
20.635	-0.952759
20.64	-0.961914
20.645	-0.952454
20.65	-0.938416
20.655	-0.935669
20.66	-0.959778
20.665	-0.953064
20.67	-0.934448
20.675	-0.948181
20.68	-0.967407
20.685	-0.951233
20.69	-0.94696
20.695	-0.943909
20.7	-0.961914
20.705	-0.948181
20.71	-0.925598
20.715	-0.924683
20.72	-0.962524
20.725	-0.959473
20.73	-0.932922
20.735	-0.945435
20.74	-0.943604
20.745	-0.945435
20.75	-0.924683
20.755	-0.946655
20.76	-0.962524
20.765	-0.954285
20.77	-0.94574
20.775	-0.941162
20.78	-0.963745
20.785	-0.949402
20.79	-0.927429
20.795	-0.944519
20.8	-0.965576
20.805	-0.950012
20.81	-0.931396
20.815	-0.941772
20.82	-0.963745
20.825	-0.949707
20.83	-0.929565
20.835	-0.941467
20.84	-0.957947
20.845	-0.946655
20.85	-0.915833
20.855	-0.933533
20.86	-0.93811
20.865	-0.941772
20.87	-0.914612
20.875	-0.917358
20.88	-0.926819
20.885	-0.929871
20.89	-0.926208
20.895	-0.931702
20.9	-0.943604
20.905	-0.935669
20.91	-0.936279
20.915	-0.93811
20.92	-0.953369
20.925	-0.955811
20.93	-0.935364
20.935	-0.940552
20.94	-0.956421
20.945	-0.960693
20.95	-0.948486
20.955	-0.964966
20.96	-0.982056
20.965	-0.971985
20.97	-0.961304
20.975	-0.979309
20.98	-0.979919
20.985	-0.984802
20.99	-0.963745
20.995	-0.996399
21	-1.01135
21.005	-1.00342
21.01	-0.986328
21.015	-0.998535
21.02	-1.02081
21.025	-1.01746
21.03	-1.0022
21.035	-1.00952
21.04	-1.02448
21.045	-1.02356
21.05	-1.00006
21.055	-1.0318
21.06	-1.0321
21.065	-1.02905
21.07	-1.02325
21.075	-1.04248
21.08	-1.06049
21.085	-1.04858
21.09	-1.01837
21.095	-1.0434
21.1	-1.05957
21.105	-1.05225
21.11	-1.04248
21.115	-1.05072
21.12	-1.06567
21.125	-1.04095
21.13	-1.04706
21.135	-1.05286
21.14	-1.05682
21.145	-1.05713
21.15	-1.05347
21.155	-1.0553
21.16	-1.0675
21.165	-1.04584
21.17	-1.03149
21.175	-1.03973
21.18	-1.01593
21.185	-1.01563
21.19	-1.01776
21.195	-1.06659
21.2	-1.07025
21.205	-1.06384
21.21	-1.06293
21.215	-1.06842
21.22	-1.08337
21.225	-1.05713
21.23	-1.03302
21.235	-1.06323
21.24	-1.04553
21.245	-1.06445
21.25	-1.03241
21.255	-1.0553
21.26	-1.04309
21.265	-1.06598
21.27	-0.994263
21.275	-0.986938
21.28	-1.01898
21.285	-0.991211
21.29	-0.996704
21.295	-1.04828
21.3	-1.05103
21.305	-0.994873
21.31	-0.966797
21.315	-0.974121
21.32	-1.02722
21.325	-1.0498
21.33	-0.942078
21.335	-0.991821
21.34	-1.02264
21.345	-1.04279
21.35	-0.956116
21.355	-1.02325
21.36	-1.04767
21.365	-1.0318
21.37	-0.996704
21.375	-1.03119
21.38	-1.00586
21.385	-1.05072
21.39	-0.931702
21.395	-1.04462
21.4	-0.961304
21.405	-1.02203
21.41	-1.02203
21.415	-1.07727
21.42	-0.943909
21.425	-1.02295
21.43	-1.01501
21.435	-0.994568
21.44	-0.957947
21.445	-0.956421
21.45	-1.0434
21.455	-0.859375
21.46	-1.0672
21.465	-1.03851
21.47	-1.02081
21.475	-1.03302
21.48	-0.834961
21.485	-0.960388
21.49	-1.00281
21.495	-0.81604
21.5	-0.98999
21.505	-0.906982
21.51	-0.91217
21.515	-1.06262
21.52	-1.05591
21.525	-0.966797
21.53	-0.980835
21.535	-0.974426
21.54	-1.04034
21.545	-0.808411
21.55	-0.966797
21.555	-0.953369
21.56	-0.741882
21.565	-1.05774
21.57	-0.975647
21.575	-0.85968
21.58	-1.03119
21.585	-0.980225
21.59	-0.966492
21.595	-0.911865
21.6	-1.12183
21.605	-0.953369
21.61	-0.995483
21.615	-1.01532
21.62	-1.04279
21.625	-0.81604
21.63	-0.964355
21.635	-1.02539
21.64	-0.958862
21.645	-1.04858
21.65	-1.02417
21.655	-0.934753
21.66	-0.999451
21.665	-0.955505
21.67	-1.01563
21.675	-0.911255
21.68	-1.0022
21.685	-0.848999
21.69	-0.921936
21.695	-1.10291
21.7	-0.941772
21.705	-1.02783
21.71	-1.02509
21.715	-0.565796
21.72	-1.15906
21.725	-1.08734
21.73	-1.04126
21.735	-0.955505
21.74	-0.906372
21.745	-0.957336
21.75	-0.96283
21.755	-0.891113
21.76	-0.955811
21.765	-0.994873
21.77	-0.979614
21.775	-0.812988
21.78	-1.04919
21.785	-0.630493
21.79	-0.818176
21.795	-0.915833
21.8	-0.86792
21.805	-1.05774
21.81	-0.932007
21.815	-0.756226
21.82	-1.07941
21.825	-0.982361
21.83	-0.826416
21.835	-0.968323
21.84	-0.986023
21.845	-0.917053
21.85	-0.811462
21.855	-0.766602
21.86	-0.884705
21.865	-0.959167
21.87	-0.98999
21.875	-0.968933
21.88	-0.786438
21.885	-0.991821
21.89	-0.904846
21.895	-1.00098
21.9	-0.974426
21.905	-0.865784
21.91	-0.918884
21.915	-0.943298
21.92	-0.814514
21.925	-0.996704
21.93	-0.965881
21.935	-0.93811
21.94	-1.01379
21.945	-0.826721
21.95	-0.799561
21.955	-0.97229
21.96	-0.967407
21.965	-0.996704
21.97	-0.905457
21.975	-0.936279
21.98	-0.883484
21.985	-1.09955
21.99	-0.818787
21.995	-0.995483
22	-1.02661
22.005	-0.97168
22.01	-0.834351
22.015	-0.981445
22.02	-0.853882
22.025	-0.880127
22.03	-1.07574
22.035	-0.910645
22.04	-0.59082
22.045	-1.11694
22.05	-0.918884
22.055	-0.871582
22.06	-1.08398
22.065	-0.796204
22.07	-0.963745
22.075	-0.994263
22.08	-1.01501
22.085	-1.12396
22.09	-0.821228
22.095	-1.07391
22.1	-0.969543
22.105	-0.736084
22.11	-0.978699
22.115	-1.0257
22.12	-0.952454
22.125	-1.01074
22.13	-0.940247
22.135	-0.758667
22.14	-0.885315
22.145	-0.897522
22.15	-0.759888
22.155	-1.02264
22.16	-1.00098
22.165	-1.04462
22.17	-1.00311
22.175	-1.01013
22.18	-0.856323
22.185	-0.80658
22.19	-0.617981
22.195	-1.05408
22.2	-1.12488
22.205	-1.0553
22.21	-0.755615
22.215	-0.81665
22.22	-0.945129
22.225	-1.08459
22.23	-0.982361
22.235	-1.08795
22.24	-0.82489
22.245	-0.900879
22.25	-0.881653
22.255	-1.05347
22.26	-1.06689
22.265	-1.04126
22.27	-0.754089
22.275	-1.12885
22.28	-0.939331
22.285	-1.04889
22.29	-0.914612
22.295	-1.04156
22.3	-0.971985
22.305	-0.939331
22.31	-0.959167
22.315	-0.759888
22.32	-1.02264
22.325	-1.08154
22.33	-1.10901
22.335	-0.953064
22.34	-1.01746
22.345	-1.09222
22.35	-1.00769
22.355	-0.85083
22.36	-1.10443
22.365	-1.1319
22.37	-0.726318
22.375	-1.00769
22.38	-0.996094
22.385	-1.0321
22.39	-1.06659
22.395	-0.997925
22.4	-1.07819
22.405	-0.741577
22.41	-1.16394
22.415	-1.15692
22.42	-1.02692
22.425	-1.073
22.43	-1.01257
22.435	-1.11816
22.44	-0.956421
22.445	-0.732117
22.45	-0.890198
22.455	-1.0672
22.46	-0.897522
22.465	-1.13007
22.47	-1.10382
22.475	-0.986938
22.48	-1.06781
22.485	-1.04126
22.49	-1.02509
22.495	-0.984192
22.5	-1.15051
22.505	-1.03394
22.51	-0.977478
22.515	-1.13739
22.52	-1.12366
22.525	-1.11511
22.53	-1.13403
22.535	-1.09985
22.54	-1.10657
22.545	-0.92804
22.55	-1.07208
22.555	-1.03912
22.56	-1.22437
22.565	-1.20331
22.57	-1.11938
22.575	-1.14075
22.58	-0.768433
22.585	-1.43066
22.59	-1.24298
22.595	-0.877075
22.6	-1.13251
22.605	-1.01685
22.61	-1.21307
22.615	-1.16241
22.62	-1.14685
22.625	-1.12823
22.63	-1.28448
22.635	-1.10077
22.64	-0.908203
22.645	-1.16852
22.65	-1.14136
22.655	-1.14441
22.66	-0.743103
22.665	-1.31409
22.67	-1.20209
22.675	-1.17493
22.68	-1.0611
22.685	-1.27045
22.69	-1.02478
22.695	-1.18134
22.7	-1.04889
22.705	-1.13129
22.71	-1.14899
22.715	-1.31622
22.72	-1.08551
22.725	-1.19446
22.73	-1.13495
22.735	-1.07971
22.74	-1.24268
22.745	-1.02448
22.75	-0.883179
22.755	-0.999756
22.76	-1.13403
22.765	-1.23505
22.77	-1.2851
22.775	-1.09985
22.78	-1.15601
22.785	-1.00586
22.79	-1.138
22.795	-1.29913
22.8	-1.11298
22.805	-1.19843
22.81	-1.08643
22.815	-1.08032
22.82	-0.904846
22.825	-1.19873
22.83	-1.25763
22.835	-0.948181
22.84	-1.23688
22.845	-1.33545
22.85	-1.08521
22.855	-1.14258
22.86	-1.00403
22.865	-1.39404
22.87	-1.27869
22.875	-1.00861
22.88	-1.0614
22.885	-1.362
22.89	-1.29303
22.895	-1.15906
22.9	-1.19659
22.905	-1.20911
22.91	-0.961609
22.915	-1.18164
22.92	-1.25671
22.925	-1.13373
22.93	-1.1908
22.935	-0.982056
22.94	-1.13647
22.945	-1.14044
22.95	-1.18011
22.955	-1.14349
22.96	-1.22192
22.965	-0.875244
22.97	-1.0321
22.975	-1.08215
22.98	-1.29761
22.985	-1.20087
22.99	-1.1972
22.995	-1.11603
23	-1.19354
23.005	-1.12183
23.01	-1.01318
23.015	-1.26038
23.02	-1.18225
23.025	-0.964661
23.03	-0.978699
23.035	-1.14136
23.04	-1.09467
23.045	-1.30798
23.05	-1.11481
23.055	-1.138
23.06	-1.21399
23.065	-0.853271
23.07	-1.0611
23.075	-1.18195
23.08	-1.30157
23.085	-1.21155
23.09	-1.0788
23.095	-1.18408
23.1	-1.1499
23.105	-1.16486
23.11	-1.21155
23.115	-1.21094
23.12	-1.04736
23.125	-1.05408
23.13	-1.17126
23.135	-1.18622
23.14	-1.09833
23.145	-1.05072
23.15	-0.942993
23.155	-1.16089
23.16	-1.21735
23.165	-1.21338
23.17	-1.17371
23.175	-0.944824
23.18	-0.908508
23.185	-1.3446
23.19	-1.14319
23.195	-1.1795
23.2	-1.19354
23.205	-1.08398
23.21	-0.957031
23.215	-1.30676
23.22	-1.22345
23.225	-1.11328
23.23	-0.960388
23.235	-1.11847
23.24	-1.18378
23.245	-1.09924
23.25	-1.13129
23.255	-1.00067
23.26	-1.37543
23.265	-1.00464
23.27	-1.15509
23.275	-1.22742
23.28	-1.22833
23.285	-1.09863
23.29	-1.16394
23.295	-1.22925
23.3	-1.19385
23.305	-1.17462
23.31	-1.21124
23.315	-1.24115
23.32	-1.11969
23.325	-1.25916
23.33	-1.18256
23.335	-1.13831
23.34	-1.25244
23.345	-0.910645
23.35	-1.26038
23.355	-1.24573
23.36	-0.901184
23.365	-1.1734
23.37	-1.27533
23.375	-1.21521
23.38	-1.18896
23.385	-1.13037
23.39	-0.91095
23.395	-1.39923
23.4	-1.13892
23.405	-1.25427
23.41	-1.22528
23.415	-0.992126
23.42	-1.2674
23.425	-1.21674
23.43	-1.21704
23.435	-1.0498
23.44	-1.19598
23.445	-1.1795
23.45	-1.09375
23.455	-1.13739
23.46	-1.15784
23.465	-1.32263
23.47	-1.24817
23.475	-1.15814
23.48	-1.2149
23.485	-1.2262
23.49	-0.974426
23.495	-1.27899
23.5	-1.22864
23.505	-1.10687
23.51	-1.11969
23.515	-1.34125
23.52	-1.1554
23.525	-1.17828
23.53	-1.25549
23.535	-1.21918
23.54	-0.984497
23.545	-1.1792
23.55	-1.28235
23.555	-1.20667
23.56	-1.2561
23.565	-1.1499
23.57	-1.04492
23.575	-1.31836
23.58	-1.11176
23.585	-1.09894
23.59	-1.21155
23.595	-1.26678
23.6	-1.17798
23.605	-1.20789
23.61	-1.16516
23.615	-1.1911
23.62	-1.20117
23.625	-1.20911
23.63	-1.11115
23.635	-1.16333
23.64	-1.29211
23.645	-1.24146
23.65	-1.19537
23.655	-1.19019
23.66	-0.848389
23.665	-1.20331
23.67	-1.28448
23.675	-1.22864
23.68	-1.2442
23.685	-1.14868
23.69	-1.29364
23.695	-1.22101
23.7	-1.00494
23.705	-1.26984
23.71	-1.20483
23.715	-1.2384
23.72	-1.17889
23.725	-1.17737
23.73	-1.2561
23.735	-1.22284
23.74	-1.2323
23.745	-1.19568
23.75	-1.15021
23.755	-1.17493
23.76	-1.28448
23.765	-1.21948
23.77	-1.13678
23.775	-1.2088
23.78	-1.16852
23.785	-1.15356
23.79	-1.03027
23.795	-1.20636
23.8	-0.941772
23.805	-1.33331
23.81	-1.05927
23.815	-1.28693
23.82	-1.23962
23.825	-1.21002
23.83	-1.2085
23.835	-1.17157
23.84	-1.11755
23.845	-1.15234
23.85	-1.22711
23.855	-0.926208
23.86	-1.28387
23.865	-1.22375
23.87	-1.15723
23.875	-1.18988
23.88	-1.19995
23.885	-1.11664
23.89	-1.14166
23.895	-1.18073
23.9	-1.19141
23.905	-1.13525
23.91	-1.1203
23.915	-1.18378
23.92	-1.21643
23.925	-1.20819
23.93	-1.17889
23.935	-1.20728
23.94	-1.21338
23.945	-1.19232
23.95	-1.14075
23.955	-1.12976
23.96	-1.23413
23.965	-1.1972
23.97	-1.17828
23.975	-1.19415
23.98	-1.20697
23.985	-1.19049
23.99	-1.17401
23.995	-1.19232
24	-1.21704
24.005	-1.19751
24.01	-1.18286
24.015	-1.20758
24.02	-1.21765
24.025	-1.19995
24.03	-1.1795
24.035	-1.20483
24.04	-1.21277
24.045	-1.18988
24.05	-1.17371
24.055	-1.19385
24.06	-1.1908
24.065	-1.17493
24.07	-1.12885
24.075	-1.14502
24.08	-1.17188
24.085	-1.13983
24.09	-1.12457
24.095	-1.13831
24.1	-1.15082
24.105	-1.12793
24.11	-1.11267
24.115	-1.13007
24.12	-1.13373
24.125	-1.11633
24.13	-1.09253
24.135	-1.10962
24.14	-1.12427
24.145	-1.09009
24.15	-1.06903
24.155	-1.09406
24.16	-1.10138
24.165	-1.07544
24.17	-1.06171
24.175	-1.07819
24.18	-1.09283
24.185	-1.06995
24.19	-1.05286
24.195	-1.06781
24.2	-1.08856
24.205	-1.06018
24.21	-1.04187
24.215	-1.06659
24.22	-1.08368
24.225	-1.05804
24.23	-1.04126
24.235	-1.05927
24.24	-1.07361
24.245	-1.05011
24.25	-1.03088
24.255	-1.04767
24.26	-1.06781
24.265	-1.0498
24.27	-1.03027
24.275	-1.0498
24.28	-1.06567
24.285	-1.0437
24.29	-1.02844
24.295	-1.05072
24.3	-1.06049
24.305	-1.04919
24.31	-1.02936
24.315	-1.04065
24.32	-1.05774
24.325	-1.03943
24.33	-1.01685
24.335	-1.0379
24.34	-1.04736
24.345	-1.03607
24.35	-1.01624
24.355	-1.02722
24.36	-1.04889
24.365	-1.03088
24.37	-1.00433
24.375	-1.01868
24.38	-1.03485
24.385	-1.01746
24.39	-0.991516
24.395	-1.01257
24.4	-1.02509
24.405	-1.00952
24.41	-0.989685
24.415	-0.997009
24.42	-1.01379
24.425	-0.995789
24.43	-0.982056
24.435	-0.997314
24.44	-1.01654
24.445	-0.981445
24.45	-0.966492
24.455	-0.983887
24.46	-0.998535
24.465	-0.975037
24.47	-0.95459
24.475	-0.962524
24.48	-0.979919
24.485	-0.959473
24.49	-0.9375
24.495	-0.951843
24.5	-0.960999
24.505	-0.94574
24.51	-0.926819
24.515	-0.940552
24.52	-0.953369
24.525	-0.934448
24.53	-0.905151
24.535	-0.922546
24.54	-0.936584
24.545	-0.922546
24.55	-0.895691
24.555	-0.898438
24.56	-0.923767
24.565	-0.904236
24.57	-0.883789
24.575	-0.891418
24.58	-0.907593
24.585	-0.889282
24.59	-0.861816
24.595	-0.875244
24.6	-0.88562
24.605	-0.871582
24.61	-0.837708
24.615	-0.852051
24.62	-0.864868
24.625	-0.854492
24.63	-0.830688
24.635	-0.834351
24.64	-0.849915
24.645	-0.847168
24.65	-0.818176
24.655	-0.83313
24.66	-0.851135
24.665	-0.829468
24.67	-0.812988
24.675	-0.834656
24.68	-0.840759
24.685	-0.827942
24.69	-0.814514
24.695	-0.825806
24.7	-0.836487
24.705	-0.830688
24.71	-0.808411
24.715	-0.819702
24.72	-0.845947
24.725	-0.826416
24.73	-0.805969
24.735	-0.814819
24.74	-0.834961
24.745	-0.827637
24.75	-0.807495
24.755	-0.818787
24.76	-0.838623
24.765	-0.822144
24.77	-0.798645
24.775	-0.813904
24.78	-0.836487
24.785	-0.817566
24.79	-0.792542
24.795	-0.805969
24.8	-0.819702
24.805	-0.802917
24.81	-0.786743
24.815	-0.761719
24.82	-0.79071
24.825	-0.788269
24.83	-0.766602
24.835	-0.773621
24.84	-0.788269
24.845	-0.775146
24.85	-0.758057
24.855	-0.777283
24.86	-0.791016
24.865	-0.775452
24.87	-0.754395
24.875	-0.766296
24.88	-0.786743
24.885	-0.76416
24.89	-0.744324
24.895	-0.759583
24.9	-0.78064
24.905	-0.767517
24.91	-0.742493
24.915	-0.744629
24.92	-0.753784
24.925	-0.75592
24.93	-0.739746
24.935	-0.747375
24.94	-0.775757
24.945	-0.75531
24.95	-0.734253
24.955	-0.744019
24.96	-0.757141
24.965	-0.744019
24.97	-0.730286
24.975	-0.740051
24.98	-0.753784
24.985	-0.733643
24.99	-0.705566
24.995	-0.714111
25	-0.732727
25.005	-0.713806
25.01	-0.690918
25.015	-0.710754
25.02	-0.722656
25.025	-0.703735
25.03	-0.686035
25.035	-0.700073
25.04	-0.721741
25.045	-0.704041
25.05	-0.687256
25.055	-0.701599
25.06	-0.719604
25.065	-0.701294
25.07	-0.675964
25.075	-0.692444
25.08	-0.711975
25.085	-0.700989
25.09	-0.683899
25.095	-0.697632
25.1	-0.715942
25.105	-0.701904
25.11	-0.684204
25.115	-0.69519
25.12	-0.719604
25.125	-0.706482
25.13	-0.68634
25.135	-0.704041
25.14	-0.728149
25.145	-0.709229
25.15	-0.692749
25.155	-0.706482
25.16	-0.72876
25.165	-0.71167
25.17	-0.690308
25.175	-0.707092
25.18	-0.726013
25.185	-0.710449
25.19	-0.694885
25.195	-0.71228
25.2	-0.724487
25.205	-0.711975
25.21	-0.700684
25.215	-0.715637
25.22	-0.731201
25.225	-0.719604
25.23	-0.70343
25.235	-0.711975
25.24	-0.731812
25.245	-0.722046
25.25	-0.70343
25.255	-0.721436
25.26	-0.737915
25.265	-0.726013
25.27	-0.710144
25.275	-0.722656
25.28	-0.747375
25.285	-0.734558
25.29	-0.707397
25.295	-0.727844
25.3	-0.749207
25.305	-0.733337
25.31	-0.714417
25.315	-0.730286
25.32	-0.744934
25.325	-0.734253
25.33	-0.718689
25.335	-0.732117
25.34	-0.750732
25.345	-0.736694
25.35	-0.717163
25.355	-0.733948
25.36	-0.752869
25.365	-0.737915
25.37	-0.714722
25.375	-0.732422
25.38	-0.750427
25.385	-0.736084
25.39	-0.727844
25.395	-0.730286
25.4	-0.752258
25.405	-0.740051
25.41	-0.717163
25.415	-0.735779
25.42	-0.751953
25.425	-0.736389
25.43	-0.713196
25.435	-0.739746
25.44	-0.758362
25.445	-0.743713
25.45	-0.720215
25.455	-0.72998
25.46	-0.76416
25.465	-0.740051
25.47	-0.71106
25.475	-0.735474
25.48	-0.753174
25.485	-0.735168
25.49	-0.705566
25.495	-0.731812
25.5	-0.765076
25.505	-0.73761
25.51	-0.717773
25.515	-0.730591
25.52	-0.766602
25.525	-0.743103
25.53	-0.689697
25.535	-0.733337
25.54	-0.749512
25.545	-0.736389
25.55	-0.691223
25.555	-0.735168
25.56	-0.775452
25.565	-0.733948
25.57	-0.715637
25.575	-0.72876
25.58	-0.770874
25.585	-0.730591
25.59	-0.679932
25.595	-0.727539
25.6	-0.739136
25.605	-0.72876
25.61	-0.690002
25.615	-0.729675
25.62	-0.769958
25.625	-0.728455
25.63	-0.707703
25.635	-0.725403
25.64	-0.769043
25.645	-0.723267
25.65	-0.68634
25.655	-0.733032
25.66	-0.742188
25.665	-0.725708
25.67	-0.684204
25.675	-0.72876
25.68	-0.766602
25.685	-0.729675
25.69	-0.705566
25.695	-0.721436
25.7	-0.761414
25.705	-0.724182
25.71	-0.690308
25.715	-0.725098
25.72	-0.7547
25.725	-0.726318
25.73	-0.694885
25.735	-0.72876
25.74	-0.765686
25.745	-0.734253
25.75	-0.70343
25.755	-0.727844
25.76	-0.768127
25.765	-0.733948
25.77	-0.693665
25.775	-0.732422
25.78	-0.766907
25.785	-0.737915
25.79	-0.70282
25.795	-0.730591
25.8	-0.77179
25.805	-0.741577
25.81	-0.70343
25.815	-0.734863
25.82	-0.77301
25.825	-0.739441
25.83	-0.698242
25.835	-0.741882
25.84	-0.77179
25.845	-0.735474
25.85	-0.71167
25.855	-0.741272
25.86	-0.77179
25.865	-0.738525
25.87	-0.704346
25.875	-0.733643
25.88	-0.769348
25.885	-0.730896
25.89	-0.701904
25.895	-0.73822
25.9	-0.768127
25.905	-0.733032
25.91	-0.711975
25.915	-0.744324
25.92	-0.765991
25.925	-0.740051
25.93	-0.698242
25.935	-0.732727
25.94	-0.765991
25.945	-0.740967
25.95	-0.703125
25.955	-0.731506
25.96	-0.769043
25.965	-0.73761
25.97	-0.708923
25.975	-0.730896
25.98	-0.766296
25.985	-0.737305
25.99	-0.700684
25.995	-0.72998
26	-0.758057
26.005	-0.734863
26.01	-0.702515
26.015	-0.732727
26.02	-0.761108
26.025	-0.728149
26.03	-0.709839
26.035	-0.72937
26.04	-0.761414
26.045	-0.728455
26.05	-0.703125
26.055	-0.733032
26.06	-0.760193
26.065	-0.731506
26.07	-0.705566
26.075	-0.729675
26.08	-0.759277
26.085	-0.72998
26.09	-0.704651
26.095	-0.72998
26.1	-0.753784
26.105	-0.733032
26.11	-0.704651
26.115	-0.733337
26.12	-0.7547
26.125	-0.727539
26.13	-0.704651
26.135	-0.733337
26.14	-0.747375
26.145	-0.724182
26.15	-0.700684
26.155	-0.72998
26.16	-0.748596
26.165	-0.726929
26.17	-0.698853
26.175	-0.727844
26.18	-0.747681
26.185	-0.719299
26.19	-0.700378
26.195	-0.728455
26.2	-0.744629
26.205	-0.720215
26.21	-0.704651
26.215	-0.719604
26.22	-0.750427
26.225	-0.720215
26.23	-0.695496
26.235	-0.724792
26.24	-0.740051
26.245	-0.725098
26.25	-0.705566
26.255	-0.72113
26.26	-0.740356
26.265	-0.721741
26.27	-0.699768
26.275	-0.718079
26.28	-0.744629
26.285	-0.725403
26.29	-0.698242
26.295	-0.723572
26.3	-0.743103
26.305	-0.717163
26.31	-0.699463
26.315	-0.722961
26.32	-0.736084
26.325	-0.723267
26.33	-0.702209
26.335	-0.719299
26.34	-0.744019
26.345	-0.722351
26.35	-0.706177
26.355	-0.725403
26.36	-0.739746
26.365	-0.721436
26.37	-0.701599
26.375	-0.722656
26.38	-0.733948
26.385	-0.725708
26.39	-0.708923
26.395	-0.720215
26.4	-0.738525
26.405	-0.722351
26.41	-0.703735
26.415	-0.718994
26.42	-0.731506
26.425	-0.722046
26.43	-0.704956
26.435	-0.725708
26.44	-0.734558
26.445	-0.722046
26.45	-0.711975
26.455	-0.714417
26.46	-0.734253
26.465	-0.720215
26.47	-0.703125
26.475	-0.717163
26.48	-0.714111
26.485	-0.718384
26.49	-0.704651
26.495	-0.720825
26.5	-0.72937
26.505	-0.719299
26.51	-0.708313
26.515	-0.710449
26.52	-0.726318
26.525	-0.709839
26.53	-0.693665
26.535	-0.714111
26.54	-0.707397
26.545	-0.709534
26.55	-0.694885
26.555	-0.715637
26.56	-0.720215
26.565	-0.714417
26.57	-0.715332
26.575	-0.710754
26.58	-0.716553
26.585	-0.699158
26.59	-0.692749
26.595	-0.709839
26.6	-0.718384
26.605	-0.71106
26.61	-0.696411
26.615	-0.69519
26.62	-0.737305
26.625	-0.728149
26.63	-0.732422
26.635	-0.729065
26.64	-0.735474
26.645	-0.713806
26.65	-0.706482
26.655	-0.723267
26.66	-0.722351
26.665	-0.715332
26.67	-0.697021
26.675	-0.714111
26.68	-0.730286
26.685	-0.731506
26.69	-0.720825
26.695	-0.718384
26.7	-0.726013
26.705	-0.707397
26.71	-0.702209
26.715	-0.718384
26.72	-0.715637
26.725	-0.72937
26.73	-0.718384
26.735	-0.72052
26.74	-0.737
26.745	-0.713196
26.75	-0.717163
26.755	-0.723877
26.76	-0.723572
26.765	-0.718079
26.77	-0.713806
26.775	-0.721436
26.78	-0.707397
26.785	-0.721436
26.79	-0.726624
26.795	-0.719299
26.8	-0.739441
26.805	-0.733948
26.81	-0.737915
26.815	-0.740662
26.82	-0.739746
26.825	-0.739441
26.83	-0.739746
26.835	-0.752563
26.84	-0.755615
26.845	-0.753784
26.85	-0.755005
26.855	-0.766602
26.86	-0.759583
26.865	-0.738525
26.87	-0.76416
26.875	-0.774536
26.88	-0.777283
26.885	-0.773315
26.89	-0.763855
26.895	-0.783691
26.9	-0.780945
26.905	-0.780945
26.91	-0.786133
26.915	-0.793152
26.92	-0.797424
26.925	-0.804138
26.93	-0.797424
26.935	-0.799561
26.94	-0.801697
26.945	-0.802612
26.95	-0.78949
26.955	-0.801086
26.96	-0.786133
26.965	-0.797119
26.97	-0.80719
26.975	-0.804443
26.98	-0.819092
26.985	-0.791321
26.99	-0.784912
26.995	-0.806885
27	-0.806885
27.005	-0.813904
27.01	-0.801086
27.015	-0.801392
27.02	-0.805359
27.025	-0.797729
27.03	-0.802612
27.035	-0.808105
27.04	-0.799255
27.045	-0.791626
27.05	-0.805664
27.055	-0.808411
27.06	-0.810242
27.065	-0.799866
27.07	-0.801086
27.075	-0.779724
27.08	-0.813904
27.085	-0.802917
27.09	-0.798035
27.095	-0.78949
27.1	-0.811462
27.105	-0.805664
27.11	-0.802612
27.115	-0.794067
27.12	-0.769653
27.125	-0.796509
27.13	-0.791931
27.135	-0.834961
27.14	-0.830688
27.145	-0.798035
27.15	-0.810242
27.155	-0.825806
27.16	-0.834351
27.165	-0.83252
27.17	-0.72998
27.175	-0.835571
27.18	-0.849915
27.185	-0.838013
27.19	-0.810547
27.195	-0.812683
27.2	-0.789795
27.205	-0.800781
27.21	-0.810547
27.215	-0.83313
27.22	-0.846252
27.225	-0.823364
27.23	-0.830078
27.235	-0.838928
27.24	-0.802917
27.245	-0.827332
27.25	-0.811768
27.255	-0.71228
27.26	-0.797424
27.265	-0.821533
27.27	-0.845032
27.275	-0.848694
27.28	-0.797119
27.285	-0.822449
27.29	-0.805054
27.295	-0.797729
27.3	-0.819702
27.305	-0.811768
27.31	-0.806274
27.315	-0.766602
27.32	-0.670471
27.325	-0.777283
27.33	-0.8255
27.335	-0.769653
27.34	-0.800781
27.345	-0.808105
27.35	-0.7901
27.355	-0.776062
27.36	-0.830383
27.365	-0.611877
27.37	-0.785217
27.375	-0.840149
27.38	-0.822144
27.385	-0.809021
27.39	-0.871277
27.395	-0.70343
27.4	-0.737915
27.405	-0.815125
27.41	-0.805969
27.415	-0.799255
27.42	-0.667725
27.425	-0.767212
27.43	-0.799255
27.435	-0.705566
27.44	-0.834045
27.445	-0.853882
27.45	-0.789795
27.455	-0.775146
27.46	-0.788879
27.465	-0.753174
27.47	-0.776367
27.475	-0.798645
27.48	-0.675659
27.485	-0.873108
27.49	-0.629578
27.495	-0.842896
27.5	-0.69458
27.505	-0.773926
27.51	-0.71991
27.515	-0.785828
27.52	-0.598145
27.525	-0.770874
27.53	-0.797729
27.535	-0.78949
27.54	-0.673828
27.545	-0.71228
27.55	-0.760193
27.555	-0.797119
27.56	-0.769043
27.565	-0.819397
27.57	-0.758972
27.575	-0.778503
27.58	-0.58197
27.585	-0.732727
27.59	-0.700378
27.595	-0.751343
27.6	-0.821533
27.605	-0.752563
27.61	-0.731812
27.615	-0.737
27.62	-0.730286
27.625	-0.6604
27.63	-0.767822
27.635	-0.747375
27.64	-0.740051
27.645	-0.772705
27.65	-0.773621
27.655	-0.798645
27.66	-0.678101
27.665	-0.491028
27.67	-0.824585
27.675	-0.610352
27.68	-0.851135
27.685	-0.787659
27.69	-0.761414
27.695	-0.707397
27.7	-0.63446
27.705	-0.769348
27.71	-0.6427
27.715	-0.807495
27.72	-0.795593
27.725	-0.771179
27.73	-0.724182
27.735	-0.56488
27.74	-0.814819
27.745	-0.798645
27.75	-0.70282
27.755	-0.637817
27.76	-0.741272
27.765	-0.843506
27.77	-0.668945
27.775	-0.754089
27.78	-0.840454
27.785	-0.750122
27.79	-0.698853
27.795	-0.665894
27.8	-0.742798
27.805	-0.793457
27.81	-0.701599
27.815	-0.608826
27.82	-0.66864
27.825	-0.853577
27.83	-0.774841
27.835	-0.737305
27.84	-0.708618
27.845	-0.644836
27.85	-0.454712
27.855	-0.513916
27.86	-0.489502
27.865	-0.492249
27.87	-0.750732
27.875	-0.550232
27.88	-0.420227
27.885	-0.534973
27.89	-0.81604
27.895	-0.816345
27.9	-0.730591
27.905	-0.454407
27.91	-0.613098
27.915	-0.857239
27.92	-0.697632
27.925	-0.775146
27.93	-0.77301
27.935	-0.699463
27.94	-0.650024
27.945	-0.754089
27.95	-0.645142
27.955	-0.62561
27.96	-0.566711
27.965	-0.794983
27.97	-0.734863
27.975	-0.680847
27.98	-0.808716
27.985	-0.579834
27.99	-0.811768
27.995	-0.854187
28	-0.799866
28.005	-0.828552
28.01	-0.739441
28.015	-0.457764
28.02	-0.331116
28.025	-0.92865
28.03	-0.718079
28.035	-0.753479
28.04	-0.795288
28.045	-0.621338
28.05	-0.753479
28.055	-0.763855
28.06	-0.663147
28.065	-0.834045
28.07	-0.763245
28.075	-0.448914
28.08	-0.68512
28.085	-0.763245
28.09	-0.867004
28.095	-0.775757
28.1	-0.79834
28.105	-0.683899
28.11	-0.614929
28.115	-0.827942
28.12	-0.792542
28.125	-0.229492
28.13	-0.843506
28.135	-0.831909
28.14	-0.832214
28.145	-0.86853
28.15	-0.939941
28.155	-0.72937
28.16	-0.891418
28.165	-0.826721
28.17	-0.720825
28.175	-0.895081
28.18	-0.79834
28.185	-0.741577
28.19	-0.801392
28.195	-0.664063
28.2	-1.0318
28.205	-0.609741
28.21	-0.753479
28.215	-0.870972
28.22	-0.930786
28.225	-0.872498
28.23	-0.870972
28.235	-0.836792
28.24	-0.731506
28.245	-0.866089
28.25	-0.786438
28.255	-0.845032
28.26	-0.807495
28.265	-0.82428
28.27	-0.892639
28.275	-0.800476
28.28	-0.922241
28.285	-0.952148
28.29	-0.906982
28.295	-0.856018
28.3	-0.953979
28.305	-0.758057
28.31	-0.942993
28.315	-0.907288
28.32	-0.969238
28.325	-0.774536
28.33	-0.766602
28.335	-0.839844
28.34	-0.592041
28.345	-0.982361
28.35	-0.95459
28.355	-0.924072
28.36	-0.865173
28.365	-0.903625
28.37	-0.731812
28.375	-1.04645
28.38	-0.747986
28.385	-0.826721
28.39	-0.905151
28.395	-0.777283
28.4	-0.575562
28.405	-1.0498
28.41	-0.780334
28.415	-0.895081
28.42	-0.943298
28.425	-0.743103
28.43	-0.879211
28.435	-0.774536
28.44	-1.02753
28.445	-0.877991
28.45	-0.827332
28.455	-0.768433
28.46	-0.979919
28.465	-0.713806
28.47	-0.98999
28.475	-0.96344
28.48	-0.534973
28.485	-1.0141
28.49	-0.822754
28.495	-0.792847
28.5	-0.993958
28.505	-0.941162
28.51	-0.990906
28.515	-0.783691
28.52	-0.933533
28.525	-0.654907
28.53	-0.959473
28.535	-1.0733
28.54	-0.966797
28.545	-0.994263
28.55	-0.65094
28.555	-0.865173
28.56	-0.50293
28.565	-1.06873
28.57	-1.15051
28.575	-1.01746
28.58	-0.978394
28.585	-1.01318
28.59	-0.789795
28.595	-0.559998
28.6	-1.05011
28.605	-0.900574
28.61	-0.982971
28.615	-0.88623
28.62	-1.08063
28.625	-0.81543
28.63	-1.16547
28.635	-1.00433
28.64	-1.03271
28.645	-1.04218
28.65	-0.75531
28.655	-0.925903
28.66	-0.946045
28.665	-0.997925
28.67	-0.718689
28.675	-1.20209
28.68	-1.10199
28.685	-0.98877
28.69	-0.89325
28.695	-0.897522
28.7	-0.724487
28.705	-0.952454
28.71	-1.05743
28.715	-0.957031
28.72	-1.10748
28.725	-1.04828
28.73	-0.952454
28.735	-0.99823
28.74	-0.795898
28.745	-1.15051
28.75	-1.05682
28.755	-1.12
28.76	-0.623474
28.765	-1.05865
28.77	-1.06079
28.775	-1.05133
28.78	-0.821228
28.785	-1.15051
28.79	-1.09131
28.795	-1.06201
28.8	-1.0553
28.805	-0.786743
28.81	-1.16119
28.815	-1.00952
28.82	-0.917969
28.825	-1.07513
28.83	-0.845947
28.835	-0.994568
28.84	-1.09558
28.845	-0.836792
28.85	-1.08093
28.855	-1.06934
28.86	-1.08582
28.865	-0.851135
28.87	-0.955505
28.875	-1.10748
28.88	-1.00586
28.885	-1.16028
28.89	-0.560913
28.895	-1.17676
28.9	-1.00861
28.905	-1.08734
28.91	-1.10565
28.915	-0.978699
28.92	-0.827332
28.925	-0.946045
28.93	-0.936279
28.935	-1.19293
28.94	-0.974731
28.945	-1.14899
28.95	-0.760803
28.955	-1.16089
28.96	-1.2793
28.965	-0.593872
28.97	-1.26862
28.975	-1.12274
28.98	-1.03455
28.985	-1.07574
28.99	-1.03882
28.995	-0.838318
29	-1.21063
29.005	-1.11145
29.01	-0.833435
29.015	-1.16608
29.02	-0.914307
29.025	-1.13678
29.03	-1.06171
29.035	-0.883179
29.04	-1.20056
29.045	-1.15204
29.05	-1.01074
29.055	-1.07819
29.06	-0.829468
29.065	-1.12671
29.07	-1.01868
29.075	-0.995483
29.08	-1.07788
29.085	-0.939331
29.09	-0.889893
29.095	-0.969238
29.1	-1.27045
29.105	-1.0788
29.11	-1.03729
29.115	-1.06537
29.12	-1.04858
29.125	-0.882263
29.13	-0.811768
29.135	-1.25488
29.14	-1.06659
29.145	-1.00983
29.15	-1.15692
29.155	-1.12762
29.16	-1.09497
29.165	-0.915222
29.17	-1.21979
29.175	-0.837097
29.18	-0.979309
29.185	-1.20117
29.19	-1.08795
29.195	-1.10901
29.2	-1.04004
29.205	-1.14624
29.21	-1.13251
29.215	-1.14166
29.22	-1.0968
29.225	-0.906982
29.23	-0.735779
29.235	-1.20636
29.24	-1.21826
29.245	-0.98053
29.25	-1.21613
29.255	-1.08459
29.26	-0.962524
29.265	-1.14685
29.27	-1.05225
29.275	-1.07056
29.28	-1.12793
29.285	-0.743103
29.29	-0.960693
29.295	-1.04645
29.3	-1.20758
29.305	-1.01929
29.31	-1.26923
29.315	-0.946045
29.32	-0.722351
29.325	-1.19934
29.33	-1.28326
29.335	-1.09283
29.34	-1.07117
29.345	-1.08307
29.35	-1.23505
29.355	-1.16516
29.36	-0.904541
29.365	-0.947571
29.37	-0.98114
29.375	-1.21765
29.38	-1.1734
29.385	-1.01349
29.39	-0.926819
29.395	-0.860291
29.4	-1.33484
29.405	-1.19995
29.41	-0.924988
29.415	-1.15692
29.42	-0.933838
29.425	-1.13068
29.43	-1.12061
29.435	-1.22833
29.44	-0.895386
29.445	-1.21277
29.45	-1.12183
29.455	-1.03577
29.46	-1.1969
29.465	-1.07697
29.47	-0.922241
29.475	-1.41022
29.48	-1.16119
29.485	-1.17981
29.49	-0.923767
29.495	-1.18164
29.5	-1.06232
29.505	-1.19446
29.51	-0.921936
29.515	-1.34155
29.52	-1.01898
29.525	-1.0788
29.53	-1.23138
29.535	-0.995789
29.54	-1.1911
29.545	-1.1026
29.55	-1.18317
29.555	-1.24817
29.56	-1.04462
29.565	-0.936279
29.57	-1.07758
29.575	-1.19843
29.58	-1.21582
29.585	-0.948486
29.59	-1.25397
29.595	-1.18073
29.6	-1.20483
29.605	-0.887451
29.61	-1.47766
29.615	-1.20209
29.62	-1.15143
29.625	-0.994263
29.63	-1.12946
29.635	-1.01532
29.64	-1.43036
29.645	-0.925903
29.65	-1.16852
29.655	-1.26343
29.66	-1.13617
29.665	-1.11176
29.67	-1.12
29.675	-1.16333
29.68	-1.08948
29.685	-1.05713
29.69	-0.770264
29.695	-1.32782
29.7	-1.0968
29.705	-1.10199
29.71	-1.21765
29.715	-1.24664
29.72	-1.09253
29.725	-1.06598
29.73	-1.12854
29.735	-1.0437
29.74	-1.1261
29.745	-1.23474
29.75	-1.18225
29.755	-1.00372
29.76	-1.04462
29.765	-1.19873
29.77	-1.073
29.775	-1.0141
29.78	-1.31134
29.785	-1.17371
29.79	-0.995483
29.795	-1.25031
29.8	-1.19324
29.805	-1.04126
29.81	-0.9729
29.815	-1.06262
29.82	-1.23901
29.825	-0.971069
29.83	-1.25854
29.835	-1.19873
29.84	-1.15082
29.845	-0.993347
29.85	-1.08734
29.855	-1.14594
29.86	-1.03851
29.865	-0.975342
29.87	-1.24634
29.875	-1.21338
29.88	-1.10779
29.885	-1.08612
29.89	-1.08612
29.895	-1.18195
29.9	-1.24908
29.905	-1.15295
29.91	-1.19019
29.915	-1.18195
29.92	-1.12579
29.925	-1.11145
29.93	-0.832214
29.935	-0.892029
29.94	-1.25275
29.945	-1.18927
29.95	-0.975037
29.955	-1.23383
29.96	-1.16516
29.965	-1.16486
29.97	-1.12396
29.975	-1.16028
29.98	-1.17554
29.985	-1.13403
29.99	-1.10046
29.995	-1.20697

