-0.681152
-0.667786
-0.660889
-0.649963
-0.635986
-0.628174
-0.608459
-0.599121
-0.597839
-0.593933
-0.586487
-0.578369
-0.578186
-0.576538
-0.574829
-0.570923
-0.571411
-0.564697
-0.558777
-0.561218
-0.556396
-0.5495
-0.537781
-0.533203
-0.519043
-0.515686
-0.511353
-0.508423
-0.496399
-0.47699
-0.464355
-0.454041
-0.443726
-0.437988
-0.432556
-0.424438
-0.41748
-0.40271
-0.393616
-0.391235
-0.392822
-0.394043
-0.387756
-0.383179
-0.37854
-0.373352
-0.371948
-0.363647
-0.370056
-0.369263
-0.364319
-0.374207
-0.365601
-0.362854
-0.353333
-0.342346
-0.332153
-0.324036
-0.315613
-0.306274
-0.303345
-0.280518
-0.264709
-0.255554
-0.238953
-0.229187
-0.206482
-0.194153
-0.174683
-0.161743
-0.148193
-0.130981
-0.110352
-0.0966797
-0.0723877
-0.0608521
-0.0459595
-0.0330811
-0.0192261
-0.00708008
0.00531006
0.0133057
0.0140381
0.0216675
0.0257568
0.0234375
0.0214233
0.0245361
0.022583
0.0272827
0.0358887
0.0352173
0.0394897
0.0376587
0.0256348
0.012085
-0.00115967
-0.0108643
-0.0245361
-0.0212402
-0.0276489
-0.0384521
-0.050293
-0.0454712
-0.046936
-0.052124
-0.0499268
-0.0509644
-0.0514526
-0.0597534
-0.0692749
-0.0661621
-0.0650024
-0.0842896
-0.0881958
-0.09198
-0.0914917
-0.0884399
-0.0841064
-0.0806885
-0.0776367
-0.0702515
-0.0670166
-0.0600586
-0.0560303
-0.0519409
-0.0452271
-0.0418701
-0.0426025
-0.0368042
-0.0341797
-0.02948
-0.027771
-0.0251465
-0.0289307
-0.0216675
-0.0246582
-0.0245361
-0.0265503
-0.0275879
-0.0335083
-0.0335693
-0.0411377
-0.0421143
-0.0471191
-0.0524902
-0.0550537
-0.0650024
-0.0651245
-0.0637207
-0.0638428
-0.0634766
-0.0671387
-0.0724487
-0.0680542
-0.076416
-0.0784912
-0.079895
-0.0844116
-0.0908813
-0.0870361
-0.0838013
-0.0848999
-0.0839233
-0.0870972
-0.0822144
-0.0807495
-0.0818481
-0.086792
-0.093689
-0.093689
-0.095459
-0.102539
-0.106262
-0.109497
-0.105652
-0.102478
-0.102661
-0.0979614
-0.0985107
-0.0948486
-0.0903931
-0.0935669
-0.0950317
-0.0929565
-0.0916748
-0.0914917
-0.0895386
-0.0947876
-0.0967407
-0.0979004
-0.098938
-0.0985718
-0.10553
-0.103577
-0.0949097
-0.100769
-0.0929565
-0.0878906
-0.079834
-0.0735474
-0.0762329
-0.0780029
-0.0758667
-0.0805664
-0.0783691
-0.0830078
-0.0911865
-0.0957031
-0.0985718
-0.10083
-0.104919
-0.11261
-0.103333
-0.0982666
-0.0900879
-0.0759888
-0.0600586
-0.0443726
-0.026001
-0.00689697
0.00714111
0.0264282
0.043396
0.0617065
0.0801392
0.0941162
0.111023
0.130859
0.138306
0.154419
0.161316
0.163208
0.169983
0.171265
0.172485
0.171997
0.169678
0.173401
0.16748
0.162537
0.156616
0.148376
0.137756
0.135498
0.121155
0.114807
0.110168
0.105408
0.0984497
0.0827026
0.0740967
0.0654297
0.0564575
0.0443115
0.0325317
0.0234375
0.017395
0.00738525
0.00549316
-0.00256348
-0.00823975
-0.00836182
-0.00653076
-0.0100098
-0.0166016
-0.0162964
-0.015625
-0.0120239
-0.0151978
-0.0126953
-0.015625
-0.0101929
-0.0130005
-0.0176392
-0.0205688
-0.0201416
-0.0194092
-0.0181274
-0.0176392
-0.0211182
-0.0189819
-0.0256958
-0.0293579
-0.0283203
-0.0264282
-0.0164185
-0.0106812
-0.012146
-0.0131226
-0.0195313
-0.020752
-0.0185547
-0.0202026
-0.0301514
-0.0303955
-0.0296021
-0.0293579
-0.0290527
-0.0288696
-0.0335083
-0.039856
-0.0441284
-0.0498047
-0.0548096
-0.0592651
-0.0627441
-0.0686646
-0.0598755
-0.0568237
-0.0546875
-0.0548096
-0.0575562
-0.0526123
-0.0528564
-0.0493164
-0.0505371
-0.0582275
-0.0604858
-0.0571289
-0.0547485
-0.0559082
-0.0610352
-0.0664673
-0.0740356
-0.0830688
-0.0891113
-0.0935059
-0.0946655
-0.100464
-0.106689
-0.105774
-0.108459
-0.112427
-0.112488
-0.112915
-0.115662
-0.113525
-0.112976
-0.107849
-0.106689
-0.0975952
-0.100647
-0.0918579
-0.0916138
-0.0932617
-0.0994263
-0.104492
-0.106018
-0.108398
-0.111511
-0.112427
-0.111877
-0.108459
-0.102539
-0.101196
-0.101807
-0.0991211
-0.0996704
-0.0966797
-0.0910034
-0.0918579
-0.0896606
-0.0910034
-0.088501
-0.0806274
-0.0760498
-0.0715332
-0.0689697
-0.0668945
-0.0632324
-0.0595093
-0.0462646
-0.039917
-0.0322266
-0.0214844
-0.0107422
-0.000671387
0.0147705
0.0339355
0.0559692
0.0687866
0.0847168
0.106506
0.12677
0.148376
0.163147
0.177979
0.188477
0.201172
0.206177
0.213745
0.217529
0.218872
0.222961
0.226624
0.226318
0.225098
0.228516
0.22467
0.218262
0.216492
0.211426
0.200012
0.188354
0.17749
0.17395
0.168091
0.168701
0.166504
0.152588
0.148743
0.140808
0.132568
0.120056
0.106079
0.0978394
0.0914307
0.0854492
0.0786133
0.0758057
0.0690918
0.0653076
0.0540771
0.0477905
0.043457
0.0392456
0.041748
0.0373535
0.0377808
0.0366821
0.0316162
0.0198975
0.0236206
0.0239868
0.0214844
0.0233154
0.0271606
0.0249023
0.0252075
0.0290527
0.0306396
0.0328369
0.0325317
0.0377197
0.0383301
0.0397339
0.0361938
0.0402222
0.0380859
0.0389404
0.0331421
0.0301514
0.0272217
0.0288086
0.0233765
0.0174561
0.0125732
0.0109253
0.00982666
-0.000183105
-0.00244141
-0.00323486
-0.00738525
0.00128174
-0.00476074
-0.00970459
-0.00518799
0.00152588
-0.00219727
-0.00262451
-0.00616455
-0.0114746
-0.0177612
-0.0219727
-0.0203247
-0.0195923
-0.0245361
-0.0248413
-0.0266724
-0.02771
-0.0310669
-0.0342407
-0.0360107
-0.0349121
-0.050293
-0.0499878
-0.0498047
-0.0507202
-0.0564575
-0.0610352
-0.0651245
-0.0713501
-0.0708618
-0.0698242
-0.0758667
-0.0825195
-0.0881348
-0.0918579
-0.0952759
-0.0950317
-0.0967407
-0.101379
-0.101318
-0.09375
-0.0862427
-0.0847778
-0.0900879
-0.0894775
-0.0795288
-0.0795288
-0.0755005
-0.0825806
-0.0803223
-0.081604
-0.0804443
-0.0791626
-0.0804443
-0.0812378
-0.0791016
-0.0731812
-0.069397
-0.0650024
-0.0654297
-0.0670776
-0.071106
-0.069458
-0.0703125
-0.0671387
-0.067749
-0.0691528
-0.0719604
-0.0698853
-0.0720215
-0.0722046
-0.0761719
-0.086792
-0.088562
-0.0924683
-0.100586
-0.101257
-0.0948486
-0.0889282
-0.0811768
-0.0740356
-0.0682983
-0.057251
-0.0535889
-0.0390015
-0.0377197
-0.0360107
-0.0192871
-0.00317383
0.0106201
0.0302734
0.0490723
0.0697632
0.0942993
0.123535
0.14978
0.173828
0.186707
0.192749
0.206421
0.21106
0.214111
0.220581
0.221252
0.226868
0.229004
0.230225
0.233215
0.233704
0.225891
0.21814
0.217651
0.210083
0.209045
0.20697
0.200867
0.19458
0.193359
0.18927
0.184814
0.173035
0.161377
0.149841
0.14502
0.138794
0.141357
0.135864
0.135498
0.12915
0.123535
0.115601
0.10907
0.101624
0.0969849
0.0893555
0.0790405
0.076416
0.0643921
0.0593262
0.0510864
0.0460205
0.0482788
0.0467529
0.0418091
0.0326538
0.027832
0.0186157
0.0128174
0.00793457
-0.000366211
-0.00170898
0.000427246
-0.00354004
-0.00256348
0.00158691
-0.00256348
-0.00170898
-0.00158691
-0.00170898
-0.0012207
-0.000915527
0.00262451
0.00201416
-0.000610352
-0.000549316
-0.00390625
-0.0078125
-0.0136719
-0.0167847
-0.0241699
-0.0236816
-0.0286255
-0.0274048
-0.0233765
-0.0222168
-0.0200195
-0.0137939
-0.0184937
-0.0251465
-0.0294189
-0.0391846
-0.0435181
-0.048645
-0.0524902
-0.0566406
-0.0594482
-0.0585938
-0.0593262
-0.0623779
-0.0661011
-0.0687866
-0.0714722
-0.072876
-0.0771484
-0.0799561
-0.0784302
-0.0799561
-0.0829468
-0.0797729
-0.0703735
-0.0667725
-0.0637207
-0.0559692
-0.0565186
-0.0540161
-0.0531616
-0.0571899
-0.0543823
-0.0544434
-0.0581665
-0.0599365
-0.0683594
-0.0687256
-0.0759277
-0.0810547
-0.0824585
-0.0835571
-0.0857544
-0.0881958
-0.0899658
-0.090271
-0.0947266
-0.0922852
-0.0952759
-0.0956421
-0.0953369
-0.0919189
-0.0921631
-0.0897827
-0.0806885
-0.0797119
-0.0802002
-0.0846558
-0.0921631
-0.0914917
-0.0952759
-0.0955811
-0.09729
-0.10083
-0.0997925
-0.104248
-0.102783
-0.107361
-0.108276
-0.112122
-0.113892
-0.111206
-0.110291
-0.119934
-0.120483
-0.124878
-0.121948
-0.124329
-0.132202
-0.126343
-0.120911
-0.129761
-0.131104
-0.128357
-0.126404
-0.126221
-0.133301
-0.134216
-0.130981
-0.127319
-0.13385
-0.129028
-0.124207
-0.116333
-0.103882
-0.0963135
-0.0890503
-0.081665
-0.0726318
-0.0626831
-0.05896
-0.0516357
-0.0383911
-0.0299683
-0.0183105
-0.000732422
0.0098877
0.0273438
0.0499878
0.0681763
0.0924072
0.113098
0.138245
0.157959
0.177307
0.194336
0.203064
0.210083
0.21698
0.218933
0.223877
0.226318
0.227966
0.222595
0.218445
0.213928
0.212097
0.210144
0.200623
0.203003
0.201111
0.198853
0.196045
0.190918
0.183044
0.177734
0.174927
0.166199
0.156677
0.15271
0.149048
0.14325
0.137695
0.130554
0.123413
0.114685
0.103516
0.0958862
0.0869751
0.0791016
0.0715942
0.0612793
0.0595093
0.0537109
0.0532227
0.0491943
0.0441895
0.0352173
0.0293579
0.0203857
0.0147705
0.0145874
0.0106201
0.00866699
0.0100708
-0.00445557
-0.0065918
-0.00799561
-0.00787354
-0.00915527
-0.0175171
-0.0137939
-0.0143433
-0.0195313
-0.0199585
-0.0200195
-0.0223389
-0.0223999
-0.0246582
-0.0236816
-0.0237427
-0.0195313
-0.0234375
-0.0272217
-0.034729
-0.0339966
-0.0328369
-0.0299683
-0.0400391
-0.0429688
-0.0407104
-0.0442505
-0.0422974
-0.0455322
-0.0513306
-0.050354
-0.0548096
-0.0569458
-0.06073
-0.0650635
-0.0702515
-0.0733643
-0.0731201
-0.0671997
-0.0748901
-0.0793457
-0.0913086
-0.098999
-0.105896
-0.113831
-0.118286
-0.122253
-0.127686
-0.126526
-0.125732
-0.12439
-0.124695
-0.126648
-0.126953
-0.128174
-0.125854
-0.131165
-0.135376
-0.136536
-0.138672
-0.139771
-0.139343
-0.14856
-0.150574
-0.144348
-0.147949
-0.14502
-0.150513
-0.152283
-0.157471
-0.161194
-0.167053
-0.166809
-0.161316
-0.15979
-0.167175
-0.1698
-0.165283
-0.165466
-0.167175
-0.16626
-0.158936
-0.156799
-0.157349
-0.153931
-0.151733
-0.148376
-0.1427
-0.13031
-0.127197
-0.123413
-0.120178
-0.120239
-0.115784
-0.115234
-0.115234
-0.11261
-0.11084
-0.10553
-0.102234
-0.10376
-0.102417
-0.100403
-0.108521
-0.108765
-0.11676
-0.114746
-0.121643
-0.118591
-0.120911
-0.122375
-0.122131
-0.12207
-0.120911
-0.117554
-0.115967
-0.114563
-0.111206
-0.111267
-0.110168
-0.100525
-0.101074
-0.108948
-0.10437
-0.0960083
-0.0942383
-0.0927734
-0.0946045
-0.0844727
-0.0793457
-0.0742798
-0.0734253
-0.0680542
-0.0612793
-0.0568237
-0.0511475
-0.0426636
-0.0365601
-0.0296021
-0.0133057
-0.00396729
0.0115967
0.0251465
0.0437012
0.0697632
0.0875244
0.114075
0.134705
0.153015
0.178711
0.190735
0.204529
0.216797
0.235291
0.243713
0.250854
0.245605
0.240356
0.232605
0.223877
0.224365
0.219543
0.217773
0.213135
0.204956
0.200806
0.19928
0.19989
0.192505
0.185181
0.182373
0.176758
0.167725
0.165283
0.159363
0.156067
0.151245
0.13385
0.129578
0.124268
0.108582
0.101196
0.0881958
0.0761108
0.0755005
0.0639648
0.0548096
0.0475464
0.0404663
0.0346069
0.0249634
0.0222168
0.0178223
0.0202026
0.0134277
0.00909424
0.0145264
0.0161743
0.0214233
0.0237427
0.0216675
0.0240479
0.0176392
0.0166626
0.0187988
0.010376
0.0136108
0.00891113
0.00280762
-0.000427246
-0.0140381
-0.0130615
-0.0254517
-0.0270386
-0.0272217
-0.0371704
-0.0400391
-0.0414429
-0.0443115
-0.0473633
-0.0537109
-0.0571289
-0.0566406
-0.0579834
-0.0619507
-0.0649414
-0.0630493
-0.0656128
-0.0651245
-0.0648804
-0.0617676
-0.0658569
-0.0691528
-0.0646362
-0.0665894
-0.0698853
-0.0758057
-0.0758667
-0.0768433
-0.0788574
-0.0802612
-0.0755615
-0.0789185
-0.0852661
-0.0964355
-0.106201
-0.110718
-0.115845
-0.119202
-0.124573
-0.127502
-0.126282
-0.130005
-0.127014
-0.126404
-0.127625
-0.128052
-0.125244
-0.128113
-0.129089
-0.137512
-0.140503
-0.144897
-0.152283
-0.155884
-0.163147
-0.163025
-0.163025
-0.172424
-0.169067
-0.168457
-0.187561
-0.193054
-0.192627
-0.189087
-0.190796
-0.184692
-0.187439
-0.18634
-0.182251
-0.17627
-0.176575
-0.178284
-0.178284
-0.171936
-0.175598
-0.173279
-0.174744
-0.173706
-0.166504
-0.156555
-0.152405
-0.147766
-0.149719
-0.149475
-0.15271
-0.149658
-0.146118
-0.141663
-0.139648
-0.140747
-0.133301
-0.132202
-0.132019
-0.128052
-0.128967
-0.118469
-0.122742
-0.12146
-0.113281
-0.104553
-0.102173
-0.102905
-0.111389
-0.108093
-0.101868
-0.0977783
-0.0876465
-0.0828857
-0.0766602
-0.072937
-0.071167
-0.0714722
-0.0687866
-0.0725708
-0.0742798
-0.0681152
-0.065918
-0.0656738
-0.0608521
-0.0601196
-0.0576172
-0.0616455
-0.0568848
-0.0478516
-0.0424194
-0.0350952
-0.0251465
-0.0205078
-0.00817871
0.00238037
0.0100708
0.0147095
0.0272827
0.0411987
0.0602417
0.079834
0.0981445
0.112549
0.127808
0.14563
0.162903
0.177979
0.181458
0.198853
0.208435
0.218445
0.22345
0.23468
0.23645
0.240845
0.242798
0.241638
0.237732
0.226379
0.225403
0.220642
0.211548
0.203247
0.200989
0.190491
0.183899
0.17688
0.157349
0.140503
0.120728
0.108093
0.0914917
0.0852661
0.0769043
0.0668335
0.0610352
0.0559692
0.0443726
0.0366211
0.03125
0.0294189
0.0234985
0.0217285
0.00756836
-0.000244141
-0.00354004
-0.00738525
-0.00897217
-0.0172729
-0.0286865
-0.0325317
-0.0367432
-0.0401611
-0.0465088
-0.0529175
-0.052002
-0.0528564
-0.0587769
-0.0519409
-0.0457764
-0.0447998
-0.0476685
-0.0511475
-0.0460815
-0.0423584
-0.0390625
-0.0400391
-0.0425415
-0.0425415
-0.0400391
-0.0355835
-0.0298462
-0.0271606
-0.0296631
-0.0274658
-0.0269775
-0.0289307
-0.0197754
-0.0109253
-0.00653076
0.000732422
-0.00311279
-0.00469971
-0.0045166
-0.00256348
-0.000732422
-0.000183105
-0.00927734
-0.0180054
-0.0240479
-0.0315552
-0.0354614
-0.0391846
-0.0443726
-0.0479736
-0.0517578
-0.0581055
-0.06073
-0.0652466
-0.0672607
-0.0696411
-0.0767212
-0.0737305
-0.071106
-0.0682373
-0.0657349
-0.0667725
-0.0686035
-0.0726318
-0.0806274
-0.074707
-0.0727539
-0.071228
-0.0693359
-0.0698242
-0.0684814
-0.0681152
-0.0687866
-0.0718994
-0.0704346
-0.0788574
-0.0820313
-0.086731
-0.0866089
-0.0855103
-0.0906372
-0.0916138
-0.0960693
-0.0993042
-0.103271
-0.0950317
-0.100464
-0.09729
-0.09552
-0.0982666
-0.106873
-0.108215
-0.115051
-0.114746
-0.107056
-0.108398
-0.107605
-0.109741
-0.106995
-0.105591
-0.10144
-0.100708
-0.0963745
-0.10199
-0.0985718
-0.0903931
-0.0932007
-0.0911255
-0.0795898
-0.0749512
-0.0588989
-0.0608521
-0.0641479
-0.0656738
-0.0662231
-0.0644531
-0.0653076
-0.059082
-0.0596924
-0.0579224
-0.0582275
-0.0585938
-0.0564575
-0.0527344
-0.0540161
-0.055481
-0.0518188
-0.0541992
-0.0546265
-0.0487061
-0.0499878
-0.0574951
-0.0601196
-0.0588379
-0.0543823
-0.0560913
-0.0557251
-0.0541382
-0.0477295
-0.0447998
-0.0455933
-0.043457
-0.0393066
-0.0361938
-0.0345459
-0.0301514
-0.0217896
-0.0115967
-0.000671387
0.00622559
0.0118408
0.026062
0.0392456
0.0592041
0.0708618
0.0818481
0.0877075
0.105957
0.119019
0.131836
0.144958
0.158142
0.165405
0.173218
0.176941
0.184998
0.194702
0.197388
0.203552
0.204468
0.204102
0.202637
0.191528
0.188782
0.191833
0.187805
0.187317
0.183777
0.187134
0.188843
0.184082
0.177612
0.171875
0.166809
0.167847
0.164917
0.157166
0.152893
0.140686
0.130127
0.116516
0.111145
0.0993042
0.09198
0.0859375
0.0831909
0.0774536
0.0678101
0.0605469
0.0524292
0.0396118
0.0317383
0.0269165
0.0200806
0.019165
0.0127563
0.00439453
0.00421143
-0.00201416
-0.0224609
-0.0229492
-0.0253296
-0.0164795
-0.00665283
0.00439453
0.0103149
0.0219727
0.0202637
0.0256958
0.0306396
0.0286255
0.0271606
0.02948
0.0285034
0.03479
0.0328979
0.0357056
0.0438232
0.0421143
0.0401001
0.0390015
0.0331421
0.0292358
0.0210571
0.00836182
-0.000854492
-0.00610352
-0.00622559
-0.0178223
-0.0180054
-0.020874
-0.0211792
-0.0274048
-0.0252075
-0.0294189
-0.0334473
-0.038147
-0.0410767
-0.0413208
-0.0547485
-0.0602417
-0.0605469
-0.062439
-0.0630493
-0.0662231
-0.071106
-0.0689697
-0.0709229
-0.0730591
-0.0741577
-0.0791016
-0.0791626
-0.079834
-0.0823975
-0.0828857
-0.0839233
-0.0896606
-0.0950928
-0.0880127
-0.0907593
-0.0810547
-0.0791016
-0.0788574
-0.0767822
-0.0742188
-0.0684204
-0.0629272
-0.0615845
-0.0576172
-0.0619507
-0.0604248
-0.0604248
-0.0619507
-0.0626221
-0.0595093
-0.0598755
-0.0733643
-0.0843506
-0.0881958
-0.0818481
-0.0852661
-0.0821533
-0.0801392
-0.0818481
-0.0792236
-0.0745239
-0.0672607
-0.0621948
-0.0603638
-0.0616455
-0.0628662
-0.0628662
-0.0562744
-0.0535889
-0.0492554
-0.0534668
-0.0519409
-0.0587158
-0.0532837
-0.0512695
-0.0473633
-0.0418701
-0.0530396
-0.0510254
-0.0523071
-0.050415
-0.0483398
-0.0454712
-0.046814
-0.0505371
-0.0510254
-0.0465088
-0.0480957
-0.0476685
-0.0465088
-0.0402832
-0.0407715
-0.0424805
-0.0366821
-0.0310059
-0.0239258
-0.0164795
-0.0100098
-0.00292969
0.00274658
0.0142822
0.0204468
0.0211182
0.0338745
0.043457
0.0583496
0.0775757
0.0877686
0.106567
0.114685
0.123413
0.132935
0.131226
0.134399
0.132385
0.134094
0.136414
0.143066
0.142151
0.134583
0.127502
0.119995
0.116028
0.114319
0.106567
0.1073
0.103394
0.103699
0.098877
0.0916748
0.0883179
0.0827637
0.0737305
0.0646973
0.0650635
0.0552979
0.0457153
0.0340576
0.026062
0.0219727
0.00720215
0.00292969
-0.00830078
-0.0123291
-0.0154419
-0.0238037
-0.0264893
-0.0250244
-0.0306396
-0.0293579
-0.0324707
-0.0380859
-0.0400391
-0.0443726
-0.0536499
-0.0515747
-0.0505371
-0.0549927
-0.0494385
-0.0394287
-0.0403442
-0.0371704
-0.0341797
-0.0410767
-0.0410156
-0.039978
-0.0443726
-0.0420532
-0.0450439
-0.0479736
-0.0465088
-0.0411377
-0.0305786
-0.0258179
-0.0195923
-0.0154419
-0.0166016
-0.0192261
-0.0216675
-0.0274048
-0.0255127
-0.0385742
-0.0470581
-0.0523682
-0.0667725
-0.0714722
-0.0772705
-0.0861816
-0.079834
-0.071106
-0.0614624
-0.053894
-0.0479736
-0.0422974
-0.0428467
-0.039917
-0.0409546
-0.0393066
-0.0372925
-0.0351563
-0.0354004
-0.0365601
-0.0326538
-0.0354004
-0.0322876
-0.0320435
-0.0303955
-0.0369873
-0.0387573
-0.0413208
-0.045166
-0.0470581
-0.0509033
-0.0587158
-0.0631104
-0.0626221
-0.0634155
-0.0553589
-0.0495605
-0.0548706
-0.0562134
-0.0617676
-0.0600586
-0.0616455
-0.0641479
-0.0680542
-0.0720215
-0.0715332
-0.0622559
-0.0581665
-0.0581055
-0.0466309
-0.0422974
-0.0358887
-0.0301514
-0.0325317
-0.0317383
-0.0246582
-0.0253906
-0.0199585
-0.0200195
-0.0183105
-0.0196533
-0.0189209
-0.0202026
-0.0167236
-0.0136719
-0.0180664
-0.0145874
-0.0115967
-0.00872803
-0.0123901
-0.00628662
-0.0107422
-0.00994873
-0.00817871
-0.00842285
-0.0117798
-0.0136108
-0.0174561
-0.0125732
-0.0128174
-0.0115967
-0.0107422
-0.00982666
-0.0141602
-0.0103149
-0.00823975
-0.0119629
-0.0149536
-0.0145264
-0.0124512
-0.00610352
6.10352E-005
0.000183105
0.00665283
0.00848389
0.0150757
0.0197144
0.0255127
0.0327759
0.0427246
0.0596924
0.0699463
0.0861206
0.102234
0.118958
0.134155
0.145264
0.154907
0.164978
0.170898
0.17926
0.185364
0.192749
0.196777
0.200317
0.203308
0.203064
0.202332
0.201538
0.195068
0.187927
0.182617
0.173401
0.174683
0.171631
0.170471
0.162292
0.149475
0.14978
0.139404
0.134521
0.120667
0.105774
0.0936279
0.0780029
0.0727539
0.06073
0.0512085
0.0462036
0.0358887
0.0289917
0.0211182
0.0177612
0.0187988
0.0112915
0.00720215
0.0102539
0.00671387
0.0057373
-0.000488281
-0.00305176
-0.00787354
-0.017334
-0.0210571
-0.0252075
-0.0259399
-0.0204468
-0.0224609
-0.019104
-0.0201416
-0.0188599
-0.0144653
-0.0183716
-0.0200806
-0.0164185
-0.0174561
-0.0136108
-0.0171509
-0.0164185
-0.0177612
-0.0236206
-0.0265503
-0.0281372
-0.0302734
-0.0314331
-0.0338135
-0.0541992
-0.0479126
-0.0515747
-0.0502319
-0.0516357
-0.0613403
-0.0689697
-0.0604858
-0.0627441
-0.0603638
-0.0629272
-0.0598755
-0.0584717
-0.0645752
-0.0697021
-0.0629883
-0.0591431
-0.0579224
-0.059082
-0.0603638
-0.0629272
-0.0614014
-0.0584717
-0.052063
-0.0554199
-0.0528564
-0.052124
-0.0471802
-0.0420532
-0.0425415
-0.0423584
-0.0376587
-0.0367432
-0.0363159
-0.0332642
-0.034729
-0.0360107
-0.0379639
-0.039856
-0.0401001
-0.0422974
-0.0446777
-0.0444336
-0.0448608
-0.0420532
-0.0441895
-0.0491333
-0.0552368
-0.0565186
-0.0621948
-0.062439
-0.0616455
-0.0665894
-0.0654297
-0.0668335
-0.0644531
-0.0626831
-0.0648804
-0.0692749
-0.0680542
-0.0704956
-0.0707397
-0.0700073
-0.0739136
-0.0712891
-0.0713501
-0.0751343
-0.0755005
-0.0770264
-0.0773315
-0.0783081
-0.0855103
-0.0847168
-0.0800781
-0.0818481
-0.0787964
-0.0770264
-0.0715332
-0.0684814
-0.0608521
-0.0522461
-0.0430298
-0.041748
-0.0334473
-0.0283203
-0.0202637
-0.00598145
-0.0135498
-0.0110474
-0.0125732
-0.00842285
-0.0133057
-0.0170288
-0.0175171
-0.00952148
-0.00402832
0.00299072
0.00427246
0.0113525
0.0200806
0.0321045
0.0428467
0.0600586
0.0724487
0.0883789
0.0977173
0.113403
0.133301
0.147217
0.157349
0.166321
0.17395
0.184021
0.188782
0.190002
0.188965
0.185425
0.183167
0.191284
0.188599
0.187256
0.180786
0.179871
0.176147
0.165588
0.157288
0.153137
0.145691
0.146423
0.13623
0.126221
0.119507
0.108765
0.104736
0.0985718
0.100159
0.0877686
0.0797119
0.0738525
0.0665283
0.0568237
0.0568237
0.0515137
0.0391235
0.0287476
0.0154419
0.0112915
0.00378418
0.00341797
0.0020752
-0.000244141
-0.00531006
-0.0110474
-0.0164185
-0.0132446
-0.0129395
-0.0128784
-0.0220337
-0.0294189
-0.0239258
-0.0194092
-0.0183716
-0.0123291
-0.00909424
-0.00469971
-0.00830078
-0.0100098
-0.00604248
-0.0106201
-0.00750732
-0.00878906
-0.0120239
-0.0185547
-0.0247803
-0.0291748
-0.03125
-0.0257568
-0.0336914
-0.0352783
-0.0371094
-0.0395508
-0.0455933
-0.0526123
-0.0563354
-0.0535889
-0.0567017
-0.048645
-0.048584
-0.0484619
-0.0457153
-0.0497437
-0.0464478
-0.0409546
-0.0427246
-0.0383911
-0.0342407
-0.0349731
-0.0402222
-0.0391235
-0.0380249
-0.0387573
-0.0367432
-0.0392456
-0.039917
-0.0492554
-0.0549927
-0.0550537
-0.0582275
-0.0557861
-0.0578003
-0.0626831
-0.0561523
-0.0529175
-0.0492554
-0.0401001
-0.0358276
-0.0388184
-0.0336914
-0.0370483
-0.0328369
-0.036377
-0.0387573
-0.0361328
-0.0357666
-0.0402832
-0.0371704
-0.0389404
-0.0477905
-0.0435181
-0.0380249
-0.0251465
-0.0189819
-0.0112305
-0.0125122
-0.00848389
-0.0175171
-0.0189819
-0.0222778
-0.0283203
-0.0338135
-0.0345459
-0.0355835
-0.0322876
-0.0323486
-0.0380859
-0.0394287
-0.0425415
-0.0546265
-0.059082
-0.0557861
-0.0557861
-0.0467529
-0.0435181
-0.048584
-0.0453491
-0.0407104
-0.0302734
-0.0289917
-0.0341797
-0.0300293
-0.0410156
-0.043396
-0.0310059
-0.0282593
-0.027771
-0.0232544
-0.0213013
-0.0147095
-0.00646973
-0.000366211
0.00769043
0.0108032
0.0182495
0.0261841
0.0400391
0.0444946
0.0498047
0.053772
0.0632324
0.0725708
0.0844727
0.0970459
0.109436
0.116577
0.13031
0.139648
0.151306
0.156738
0.165283
0.174927
0.177246
0.178833
0.177979
0.179016
0.183716
0.177856
0.172119
0.173462
0.168579
0.157715
0.154724
0.146179
0.140076
0.132813
0.12439
0.111938
0.105591
0.0982666
0.0930786
0.0844116
0.0791016
0.0596924
0.0498047
0.0476074
0.0393066
0.029541
0.0204468
0.0129395
0.00238037
-0.0088501
-0.0175171
-0.0276489
-0.0304565
-0.0380859
-0.0409546
-0.0414429
-0.0408325
-0.0407715
-0.0403442
-0.0429688
-0.048645
-0.0494995
-0.0491333
-0.048584
-0.052063
-0.0482178
-0.0501099
-0.0511475
-0.0529175
-0.0535278
-0.0545654
-0.0525513
-0.0497437
-0.0407715
-0.0356445
-0.0356445
-0.0316772
-0.0288086
-0.0333862
-0.0427246
-0.0449829
-0.0487061
-0.0557861
-0.0490112
-0.0450439
-0.0476074
-0.0501099
-0.0499268
-0.0453491
-0.0499878
-0.0476074
-0.0440063
-0.0449219
-0.0424805
-0.0405273
-0.0409546
-0.0424805
-0.0412598
-0.041687
-0.0447388
-0.0411377
-0.0430908
-0.0566406
-0.0718994
-0.0777588
-0.0878296
-0.0968628
-0.0999146
-0.103027
-0.10498
-0.103943
-0.107361
-0.106934
-0.109192
-0.108826
-0.105042
-0.110229
-0.11261
-0.105896
-0.105896
-0.0995483
-0.101685
-0.102661
-0.101685
-0.097229
-0.0839844
-0.0732422
-0.069519
-0.0617065
-0.0560303
-0.050293
-0.039856
-0.0415649
-0.0335083
-0.0285034
-0.0336304
-0.0358887
-0.0346069
-0.0326538
-0.0322266
-0.0318604
-0.0361938
-0.0361938
-0.0369263
-0.0345459
-0.0404663
-0.0415039
-0.0396729
-0.0413208
-0.0447998
-0.0452271
-0.0453491
-0.0481567
-0.0482788
-0.0455322
-0.0471191
-0.0504761
-0.0519409
-0.0487061
-0.052002
-0.0535889
-0.0547485
-0.0583496
-0.059082
-0.0603027
-0.0588989
-0.0533447
-0.0443115
-0.0400391
-0.0328979
-0.0298462
-0.026001
-0.0234985
-0.0175171
-0.0291138
-0.019104
-0.0045166
0.00958252
0.0289307
0.0444946
0.0704956
0.0900269
0.115479
0.136719
0.156067
0.17395
0.188965
0.197937
0.203796
0.207214
0.211304
0.221558
0.226074
0.23053
0.236572
0.227783
0.217407
0.211853
0.205017
0.208069
0.200745
0.190491
0.190308
0.183777
0.179382
0.17041
0.162354
0.159485
0.158325
0.156128
0.148926
0.138184
0.125488
0.115479
0.109009
0.101379
0.0889282
0.0744629
0.0695801
0.065979
0.0588989
0.0524902
0.0476685
0.0458374
0.0407715
0.0377808
0.0323486
0.0274048
0.0228882
0.0162354
0.0124512
0.0167847
0.00994873
0.00976563
0.0065918
0.0020752
0.00823975
0.000793457
-0.00250244
-0.000244141
0.0045166
0.0108643
0.0176392
0.0117188
0.0115356
0.00720215
0.00939941
0.00787354
0.00427246
0.00708008
0.00775146
0.00939941
0.0057373
0.00366211
0.00421143
0.00164795
-0.00360107
-0.020813
-0.020813
-0.0210571
-0.0241089
-0.0239258
-0.0202637
-0.0203857
-0.0177612
-0.020752
-0.0170288
-0.0178833
-0.0184326
-0.0181885
-0.0164185
-0.0193481
-0.0238647
-0.022644
-0.0276489
-0.0281372
-0.0297241
-0.0343018
-0.0410156
-0.0411987
-0.0489502
-0.050354
-0.0467529
-0.0545654
-0.0513306
-0.0534058
-0.0598755
-0.0548706
-0.0584717
-0.0562134
-0.0567627
-0.0561523
-0.055481
-0.0541382
-0.0574951
-0.0606079
-0.0675049
-0.0701294
-0.0699463
-0.0736084
-0.0732422
-0.0744629
-0.0717163
-0.0706177
-0.0748901
-0.0709839
-0.0730591
-0.0769653
-0.0726318
-0.0790405
-0.0734253
-0.0701294
-0.0656738
-0.0657349
-0.0682983
-0.0691528
-0.0731201
-0.0662231
-0.0634766
-0.0620728
-0.0635986
-0.0605469
-0.057312
-0.0591431
-0.0524902
-0.0546265
-0.0515747
-0.0435791
-0.045166
-0.0490723
-0.0443726
-0.0531006
-0.0610962
-0.057251
-0.0647583
-0.0634766
-0.0636597
-0.0614014
-0.0565186
-0.0530396
-0.0551758
-0.0499878
-0.0410767
-0.0385742
-0.0333252
-0.0232544
-0.0115356
-0.00354004
0.00354004
0.0109253
0.020874
0.0391846
0.0585327
0.0748901
0.0950317
0.114502
0.129089
0.142578
0.160034
0.170349
0.181213
0.19043
0.194824
0.203552
0.20575
0.208923
0.203552
0.205627
0.212891
0.200806
0.191467
0.190796
0.187073
0.181763
0.178589
0.172485
0.168335
0.158997
0.152893
0.141541
0.12561
0.116272
0.103394
0.0968018
0.0877075
0.085144
0.0839844
0.0842896
0.0758057
0.0725098
0.0697021
0.0546265
0.0476685
0.0372314
0.0298462
0.0254517
0.0176392
0.0162354
0.0128784
0.00927734
-0.00146484
-0.0057373
-0.00799561
-0.0128174
-0.0202637
-0.0251465
-0.0310669
-0.0355225
-0.0393066
-0.039917
-0.0383301
-0.039978
-0.0421143
-0.041748
-0.0391235
-0.0418091
-0.0368652
-0.0296021
-0.0247803
-0.0214844
-0.0268555
-0.0286865
-0.0289917
-0.02771
-0.0209961
-0.0218506
-0.0290527
-0.0268555
-0.0238647
-0.0230713
-0.0311279
-0.0321655
-0.0274048
-0.0287476
-0.0238647
-0.015625
-0.0184937
-0.0178223
-0.0234985
-0.0304565
-0.0328369
-0.0367432
-0.0418701
-0.0444336
-0.0514526
-0.0534058
-0.0530396
-0.0585327
-0.0529785
-0.048645
-0.043335
-0.0386353
-0.0324707
-0.0292358
-0.024231
-0.0217285
-0.0266113
-0.0292358
-0.03125
-0.0267334
-0.0350342
-0.0422363
-0.043396
-0.0435791
-0.0404053
-0.0427856
-0.0529175
-0.0528564
-0.0563354
-0.0543823
-0.0529785
-0.0512085
-0.0510254
-0.0543823
-0.0558472
-0.0643311
-0.0706787
-0.0684814
-0.0667725
-0.0665894
-0.0684814
-0.0713501
-0.0713501
-0.0731812
-0.0699463
-0.0670776
-0.0657349
-0.064209
-0.0629883
-0.0618896
-0.0662231
-0.0593872
-0.0593262
-0.0569458
-0.0579224
-0.0547485
-0.0492554
-0.050354
-0.0459595
-0.0426025
-0.0366821
-0.0355835
-0.0406494
-0.0331421
-0.0363159
-0.0378418
-0.0385742
-0.0388794
-0.0385132
-0.0330811
-0.0292969
-0.020813
-0.00640869
0.00390625
0.00744629
0.0245361
0.0401611
0.053833
0.0658569
0.0854492
0.103577
0.115967
0.133179
0.142883
0.151672
0.155029
0.156921
0.164001
0.167847
0.169434
0.172241
0.174133
0.17749
0.177368
0.17041
0.167358
0.156921
0.154602
0.144775
0.133911
0.127808
0.115845
0.104004
0.101135
0.0858765
0.0786743
0.0699463
0.0718384
0.0698853
0.0587158
0.0466919
0.0374756
0.0307007
0.0199585
0.0148926
0.00909424
0.00488281
0.00115967
-0.00372314
-0.00927734
-0.0132446
-0.0165405
-0.0178223
-0.0192871
-0.0213623
-0.026123
-0.0285645
-0.0317993
-0.0372925
-0.0358887
-0.0370483
-0.0339355
-0.0283203
-0.0267334
-0.0221558
-0.0189209
-0.0224609
-0.0241089
-0.0301514
-0.0270996
-0.0276489
-0.0234985
-0.0220947
-0.0130005
-0.0154419
-0.0131226
-0.0112305
-0.0122681
-0.0129395
-0.0109863
-0.0111694
-0.0209961
-0.0116577
-0.0126953
-0.0140991
-0.0153198
-0.0199585
-0.0153198
-0.0151978
-0.0140991
-0.010376
-0.00909424
-0.00793457
-0.0134888
-0.0145874
-0.0147705
-0.0194092
-0.015686
-0.0147705
-0.013916
-0.0120239
-0.0170898
-0.0195923
-0.022522
-0.0233765
-0.0252686
-0.0293579
-0.0307617
-0.0336304
-0.0299683
-0.0296021
-0.026001
-0.0262451
-0.024292
-0.0267334
-0.0298462
-0.0342407
-0.0336914
-0.0324707
-0.0332642
-0.0368652
-0.0400391
-0.0467529
-0.0495605
-0.0535278
-0.055603
-0.055603
-0.057373
-0.0635986
-0.0673218
-0.071167
-0.0673218
-0.0647583
-0.0649414
-0.0612793
-0.0643921
-0.0671387
-0.0630493
-0.0592041
-0.0495605
-0.0440674
-0.0435181
-0.0397339
-0.0362549
-0.0363159
-0.0380249
-0.036499
-0.0390625
-0.0343018
-0.0296631
-0.0254517
-0.0261841
-0.0264893
-0.0272827
-0.0248413
-0.0299072
-0.0304565
-0.0273438
-0.0192871
-0.019104
-0.00830078
-0.00817871
-0.0032959
0.00378418
0.0158691
0.03302
0.0408936
0.0510864
0.0704346
0.0825806
0.100769
0.115845
0.11908
0.13269
0.142395
0.158508
0.174622
0.184326
0.197754
0.214783
0.22522
0.232727
0.233765
0.233643
0.230652
0.2276
0.225037
0.221924
0.222168
0.214478
0.208618
0.206055
0.197388
0.195618
0.184875
0.177612
0.168274
0.153503
0.143799
0.134155
0.124939
0.108704
0.101868
0.0928955
0.0866699
0.0745239
0.0683594
0.0599976
0.0531616
0.0423584
0.0393677
0.0280762
0.0172729
0.0133667
0.00640869
0.00164795
-0.0010376
-0.00170898
-0.0032959
-0.00750732
-0.0130005
-0.0258789
-0.0267334
-0.0252075
-0.0287476
-0.024231
-0.0194092
-0.0270386
-0.0283813
-0.0286865
-0.0305786
-0.0299683
-0.0327148
-0.026062
-0.0250244
-0.027832
-0.0290527
-0.0294189
-0.0269775
-0.0241089
-0.0296631
-0.0288086
-0.0341797
-0.0419922
-0.0493164
-0.0489502
-0.0505981
-0.0527344
-0.0494995
-0.0450439
-0.046814
-0.0458374
-0.0446777
-0.0515137
-0.0568848
-0.0629272
-0.0635376
-0.0595703
-0.0606689
-0.057312
-0.0524292
-0.0543213
-0.0546875
-0.0633545
-0.0762329
-0.0804443
-0.0825806
-0.0884399
-0.0957031
-0.0991821
-0.101807
-0.1026
-0.111267
-0.113342
-0.120728
-0.115234
-0.112244
-0.110535
-0.105835
-0.0947266
-0.088501
-0.0779419
-0.0710449
-0.0761108
-0.0784302
-0.0790405
-0.0805054
-0.0877075
-0.0892944
-0.0916748
-0.0846558
-0.0778809
-0.0750732
-0.0742188
-0.0778809
-0.0756836
-0.0764771
-0.0738525
-0.0707397
-0.069397
-0.0630493
-0.0628662
-0.062439
-0.0641479
-0.0603638
-0.0576172
-0.0569458
-0.0559692
-0.055603

-0.0516968
-0.0498047
-0.0481567
-0.0527344
-0.0475464
-0.0485229
-0.0456543
-0.0401001
-0.031311
-0.0252686
-0.0231934
-0.0249023
-0.0303345
-0.0325317
-0.0311279
-0.0272217
-0.0244141
-0.0279541
-0.0183716
-0.0187378
-0.0112305
0.00213623
0.00769043
0.0189209
0.0376587
0.0527954
0.0666504
0.0772095
0.0930786
0.109314
0.127441
0.145874
0.165894
0.183289
0.205078
0.219482
0.230713
0.241882
0.241272
0.248535
0.254395
0.250671
0.246521
0.246033
0.242249
0.246277
0.241577
0.235291
0.229309
0.224365
0.213806
0.204895
0.195984
0.193237
0.183716
0.175415
0.170105
0.164368
0.158447
0.15802
0.149841
0.143982
0.138977
0.131165
0.131409
0.13623
0.135315
0.124756
0.125427
0.122192
0.118469
0.110535
0.0952148
0.0845947
0.0773926
0.0664673
0.0541992
0.0463867
0.0447388
0.0386353
0.0289307
0.0192261
0.0165405
0.0137939
0.0133057
0.00634766
0.00811768
-0.00012207
-0.00427246
-0.00140381
-0.00201416
-0.0043335
-0.0111694
-0.0111694
-0.0108643
-0.0124512
-0.0186768
-0.0178833
-0.0201416
-0.0241699
-0.0247192
-0.0222778
-0.0220947
-0.027771
-0.0377197
-0.0418091
-0.0431519
-0.046875
-0.0453491
-0.0458984
-0.0527954
-0.0548706
-0.0635986
-0.065918
-0.0692139
-0.0754395
-0.0773315
-0.0773315
-0.0835571
-0.085083
-0.0859375
-0.0844727
-0.0845337
-0.0892334
-0.0949707
-0.100159
-0.102417
-0.107056
-0.111816
-0.112244
-0.117249
-0.116028
-0.112976
-0.11084
-0.10675
-0.10791
-0.108398
-0.111572
-0.11438
-0.107483
-0.111084
-0.109375
-0.109497
-0.114319
-0.115479
-0.112427
-0.110229
-0.110107
-0.112488
-0.110779
-0.111145
-0.109497
-0.110596
-0.110352
-0.110718
-0.1073
-0.104858
-0.101074
-0.0984497
-0.0976563
-0.0978394
-0.0930786
-0.0964355
-0.0991211
-0.102356
-0.0986938
-0.0935059
-0.0960083
-0.0947876
-0.0925903
-0.090332
-0.0906372
-0.0957031
-0.104248
-0.109436
-0.113159
-0.114075
-0.118591
-0.110535
-0.108276
-0.1073
-0.10321
-0.102661
-0.0969849
-0.0898438
-0.0906982
-0.0852051
-0.0795898
-0.0756226
-0.0749512
-0.0704956
-0.0692139
-0.0633545
-0.0574951
-0.0557251
-0.048584
-0.0446777
-0.0403442
-0.0415039
-0.0579224
-0.0679321
-0.0755615
-0.0788574
-0.0884399
-0.0791016
-0.0758057
-0.0636597
-0.0527344
-0.0419922
-0.0248413
-0.00860596
0.0130615
0.0395508
0.0583496
0.0731201
0.0942383
0.108704
0.128479
0.143127
0.14856
0.15802
0.164063
0.166199
0.168335
0.175964
0.177979
0.175964
0.174683
0.167969
0.157104
0.154663
0.143921
0.139587
0.131592
0.122253
0.111694
0.101746
0.100037
0.0933838
0.0914917
0.081604
0.0801392
0.0779419
0.0766602
0.0738525
0.0887451
0.101135
0.116882
0.124207
0.132813
0.139771
0.14209
0.141418
0.143799
0.139221
0.122375
0.116882
0.107788
0.1026
0.0966797
0.0960083
0.0931396
0.0916138
0.0859985
0.0842896
0.0822144
0.0749512
0.0740356
0.0736084
0.071106
0.0756226
0.0742798
0.0728149
0.0733032
0.0679321
0.0664063
0.0679321
0.0623169
0.0635376
0.0621948
0.0540771
0.0462646
0.0444336
0.0408936
0.0408936
0.0443115
0.0467529
0.0491943
0.0437622
0.0443115
0.0396118
0.0253296
0.0254517
0.0189819
0.0148315
0.0117798
0.00408936
0.00482178
0.00494385
0.00585938
0.0032959
-0.00231934
-0.00549316
-0.000427246
-0.00909424
0.0010376
0.00201416
0.00897217
0.0130615
0.0144043
0.0158691
0.0139771
0.00244141
-0.000488281
-0.00769043
-0.0139771
-0.026123
-0.0270386
-0.0343628
-0.0402222
-0.0460815
-0.0527954
-0.0579224
-0.0670166
-0.071106
-0.0759277
-0.0779419
-0.0808716
-0.0843506
-0.085083
-0.0831909
-0.0831299
-0.0715942
-0.0650024
-0.0617676
-0.0495605
-0.046814
-0.038208
-0.034668
-0.0395508
-0.0441895
-0.0480347
-0.0480957
-0.0487061
-0.0495605
-0.0546265
-0.057251
-0.0581055
-0.0651245
-0.0629272
-0.0684204
-0.0708618
-0.0682373
-0.0710449
-0.0679932
-0.0709839
-0.065979
-0.0684814
-0.072998
-0.0749512
-0.0739136
-0.0714722
-0.0698242
-0.0766602
-0.0759277
-0.0773315
-0.0774536
-0.076416
-0.0733643
-0.0696411
-0.0656128
-0.0543823
-0.0533447
-0.0509644
-0.0540161
-0.0635376
-0.0720215
-0.0753784
-0.0807495
-0.0847168
-0.0917358
-0.0983276
-0.0956421
-0.0969238
-0.086731
-0.0877075
-0.0827637
-0.0751343
-0.0673218
-0.0563354
-0.0391235
-0.0350952
-0.0180664
-0.00769043
0.0119019
0.0316772
0.0531616
0.0739136
0.0934448
0.110291
0.132446
0.141907
0.162781
0.179016
0.193726
0.208374
0.220398
0.231689
0.231628
0.226257
0.232056
0.230103
0.226135
0.221802
0.216797
0.209045
0.199829
0.195984
0.195984
0.189148
0.17749
0.174988
0.172913
0.166748
0.158325
0.153931
0.144104
0.138
0.130737
0.123901
0.116272
0.109741
0.0997925
0.0903931
0.0836792
0.0771484
0.0671997
0.0552979
0.0482178
0.0343628
0.0270996
0.0154419
0.0122681
0.0126953
0.00134277
-0.00402832
-0.0057373
-0.012207
-0.0204468
-0.0278931
-0.0395508
-0.0369263
-0.0333252
-0.0253296
-0.0251465
-0.0283203
-0.0276489
-0.0216064
-0.0231934
-0.0245972
-0.0234375
-0.0170898
-0.0151367
-0.0067749
-0.0067749
-0.0098877
-0.0055542
-0.0153809
-0.0159302
-0.0233765
-0.0239868
-0.0264282
-0.0221558
-0.0223389
-0.019043
-0.0206299
-0.0275269
-0.0249634
-0.0234985
-0.0227661
-0.0148926
-0.0114136
-0.00653076
-0.00500488
-0.0116577
-0.0149536
-0.0195923
-0.0270386
-0.0291138
-0.0374756
-0.0464478
-0.0516968
-0.0532227
-0.0513306
-0.057251
-0.0578003
-0.0548706
-0.0568237
-0.048584
-0.0465088
-0.050415
-0.0494995
-0.0514526
-0.0579834
-0.05896
-0.0574341
-0.0606079
-0.0623169
-0.0684204
-0.0679932
-0.0637207
-0.0697021
-0.0749512
-0.0812378
-0.0809326
-0.0764771
-0.0709229
-0.0655518
-0.0673218
-0.0637207
-0.0639648
-0.0640869
-0.069519
-0.0698242
-0.0802612
-0.0900269
-0.0906372
-0.0976563
-0.0964966
-0.0914307
-0.0975342
-0.0959473
-0.0999146
-0.0953979
-0.0966797
-0.101929
-0.103027
-0.10321
-0.098877
-0.0966187
-0.0971069
-0.0903931
-0.0895386
-0.0903931
-0.0921631
-0.0916748
-0.0914917
-0.0929565
-0.0963745
-0.0976563
-0.0994263
-0.102112
-0.10321
-0.101868
-0.101868
-0.104858
-0.1026
-0.102844
-0.110107
-0.107239
-0.107971
-0.107788
-0.10437
-0.0932007
-0.0898438
-0.0880737
-0.0893555
-0.0921631
-0.0878906
-0.0835571
-0.078125
-0.0675049
-0.0633545
-0.0521851
-0.038147
-0.0230713
-0.00946045
0.0108032
0.017334
0.0269165
0.0428467
0.0580444
0.071106
0.0837402
0.104126
0.119019
0.134033
0.14917
0.160217
0.172424
0.179993
0.177612
0.18219
0.184021
0.181641
0.187256
0.187073
0.196716
0.191711
0.190308
0.188538
0.186401
0.180481
0.177307
0.172974
0.156372
0.149597
0.141968
0.130676
0.120056
0.111145
0.105408
0.101135
0.0903931
0.0858765
0.0749512
0.0651855
0.0547485
0.0372314
0.0230713
0.00708008
-0.00811768
-0.0187378
-0.0269775
-0.0452271
-0.0477295
-0.050354
-0.0551147
-0.0655518
-0.0668335
-0.0696411
-0.069397
-0.0713501
-0.0777588
-0.0736084
-0.0794067
-0.0774536
-0.0769653
-0.0758667
-0.0670166
-0.0596313
-0.0769043
-0.0915527
-0.103027
-0.0974121
-0.0834961
-0.0771484
-0.0706177
-0.067749
-0.0646362
-0.0612793
-0.0539551
-0.0523682
-0.0490112
-0.0493164
-0.046936
-0.0524902
-0.0534058
-0.0489502
-0.0445557
-0.0377197
-0.0411377
-0.0352783
-0.0349731
-0.0350952
-0.0356445
-0.0421143
-0.0497437
-0.0534668
-0.059082
-0.0578613
-0.0609131
-0.0643311
-0.0657349
-0.0683594
-0.0675659
-0.069458
-0.0681763
-0.0762939
-0.0840454
-0.0858154
-0.0925903
-0.093689
-0.0916748
-0.0888062
-0.0887451
-0.0875244
-0.0894165
-0.0855103
-0.0863037
-0.0855713
-0.0860596
-0.0878296
-0.0877686
-0.0942993
-0.0944824
-0.0931396
-0.0946045
-0.0921631
-0.09375
-0.0927124
-0.0984497
-0.09375
-0.0870972
-0.0869141
-0.0797119
-0.0809937
-0.0764771
-0.0745239
-0.072937
-0.0758057
-0.0717773
-0.0750122
-0.0670776
-0.0604248
-0.0564575
-0.0574341
-0.0598755
-0.0651245
-0.0670166
-0.069397
-0.0662231
-0.0617065
-0.0582275
-0.0550537
-0.0501099
-0.0477295
-0.043335
-0.0471191
-0.0447998
-0.0544434
-0.0548706
-0.048645
-0.0506592
-0.0446167
-0.043396
-0.0415649
-0.0442505
-0.0430298
-0.0426636
-0.0431519
-0.0479126
-0.043457
-0.0436401
-0.0473633
-0.0431519
-0.041626
-0.0424194
-0.039856
-0.0376587
-0.0360718
-0.0320435
-0.0258179
-0.017395
-0.0137939
-0.00836182
-0.00128174
0.00958252
0.0267944
0.038147
0.0568848
0.0762939
0.0975952
0.117432
0.131287
0.149841
0.165771
0.17749
0.192627
0.206055
0.215515
0.222595
0.231018
0.23291
0.236572
0.233948
0.22583
0.219727
0.218079
0.214722
0.214905
0.206909
0.197876
0.188782
0.179871
0.172363
0.166626
0.160645
0.156311
0.143982
0.133728
0.120117
0.1026
0.0919189
0.0764771
0.0656128
0.0598755
0.0404663
0.0374756
0.0256958
0.0187988
0.0112915
0.00408936
-0.00494385
-0.00927734
-0.0143433
-0.0222168
-0.0363159
-0.0491333
-0.0578003
-0.0628662
-0.0653076
-0.0709839
-0.0761719
-0.0738525
-0.0626221
-0.0604248
-0.0504761
-0.0490723
-0.0454712
-0.0425415
-0.0431519
-0.0421753
-0.0340576
-0.0314941
-0.0344849
-0.0272217
-0.0308228
-0.0338135
-0.0332642
-0.0314331
-0.0287476
-0.0304565
-0.0315552
-0.0358887
-0.0357666
-0.0397339
-0.0411377
-0.0442505
-0.0437012
-0.0426025
-0.0396729
-0.0405273
-0.0439453
-0.0437622
-0.0386353
-0.0408325
-0.0335083
-0.0322266
-0.0396118
-0.0368042
-0.0438843
-0.0457764
-0.0441895
-0.0426025
-0.0526123
-0.0548706
-0.0587769
-0.0585327
-0.0628662
-0.0649414
-0.0626221
-0.0618896
-0.0635986
-0.0673828
-0.071167
-0.0700684
-0.0733643
-0.0690918
-0.067749
-0.0646362
-0.0684204
-0.0608521
-0.0632324
-0.0575562
-0.0567017
-0.0498657
-0.050293
-0.0477905
-0.0463257
-0.0491333
-0.0557861
-0.0626831
-0.0698242
-0.0770264
-0.0805054
-0.0866089
-0.0891113
-0.0959473
-0.0982056
-0.0949707
-0.0986328
-0.0980225
-0.0983276
-0.0922852
-0.0884399
-0.0848999
-0.0836792
-0.0774536
-0.0737915
-0.0768433
-0.0802002
-0.0876465
-0.086792
-0.0877075
-0.0857544
-0.083313
-0.090332
-0.0910645
-0.0908203
-0.0906982
-0.0866089
-0.0831299
-0.0799561
-0.0810547
-0.0872803
-0.0767822
-0.0783691
-0.074585
-0.0723267
-0.069458
-0.0761108
-0.0797729
-0.0863037
-0.086731
-0.0880127
-0.0848999
-0.0843506
-0.0866089
-0.0860596
-0.083252
-0.0846558
-0.0844727
-0.0760498
-0.0687256
-0.0671997
-0.0518188
-0.0495605
-0.0423584
-0.0230713
-0.0110474
0.00524902
0.0110474
0.0205688
0.0393066
0.0565186
0.0726929
0.0892334
0.109924
0.124878
0.141418
0.153015
0.162476
0.168518
0.176331
0.181335
0.185913
0.177917
0.17395
0.167664
0.161316
0.160278
0.152649
0.151245
0.154785
0.157166
0.161133
0.163086
0.16925
0.174316
0.170776
0.166992
0.159973
0.157043
0.154114
0.153931
0.143372
0.148621
0.143127
0.131592
0.121277
0.114502
0.0983276
0.0889282
0.0755615
0.0646973
0.0569458
0.0460815
0.0372314
0.0369873
0.0310669
0.0273438
0.0216675
0.0203247
0.017395
0.0140991
0.00463867
-0.000976563
-0.010498
-0.00976563
-0.0145874
-0.0132446
-0.0137939
-0.00915527
-0.00842285
-0.00836182
-0.00494385
-0.000732422
-0.00183105
-0.00634766
-0.0098877
-0.00732422
-0.0116577
-0.015564
-0.0228882
-0.0213623
-0.0158081
-0.0117798
-0.00286865
0.000488281
-0.000793457
-0.00390625
-0.00909424
-0.00476074
-0.0165405
-0.0270386
-0.0323486
-0.0428467
-0.0443115
-0.0361938
-0.0402222
-0.0427856
-0.0438843
-0.0401001
-0.0479126
-0.0560913
-0.0531006
-0.0635376
-0.0663452
-0.0744019
-0.0755005
-0.0749512
-0.072937
-0.0758667
-0.0722046
-0.0795898
-0.0852051
-0.0812378
-0.0834961
-0.0844116
-0.088501
-0.0906982
-0.0858765
-0.0894775
-0.0838013
-0.0825806
-0.0768433
-0.0784912
-0.0820313
-0.0807495
-0.0792236
-0.0791016
-0.0755005
-0.0665283
-0.0635376
-0.0631104
-0.0663452
-0.0631104
-0.0668335
-0.0685425
-0.0679932
-0.0603027
-0.059082
-0.0561523
-0.0533447
-0.0530396
-0.052124
-0.0516968
-0.0505981
-0.0446167
-0.0459595
-0.0411987
-0.0472412
-0.041748
-0.0410156
-0.0402222
-0.0350342
-0.0419922
-0.0467529
-0.0523682
-0.0562744
-0.071228
-0.0731812
-0.0807495
-0.0796509
-0.0803223
-0.0785522
-0.0769043
-0.0690918
-0.0709839
-0.071167
-0.0720215
-0.0679321
-0.0662842
-0.0664673
-0.067627
-0.0689697
-0.0640869
-0.0592041
-0.0510254
-0.0444946
-0.0448608
-0.0392456
-0.0386963
-0.0377197
-0.0372314
-0.029541
-0.0330811
-0.0280151
-0.0286865
-0.0272217
-0.0350952
-0.0333252
-0.0299072
-0.0285645
-0.0230103
-0.0231934
-0.0166626
-0.00280762
0.0098877
0.0215454
0.0363159
0.0495605
0.065979
0.0827026
0.0971069
0.106812
0.117065
0.136475
0.15094
0.169739
0.175293
0.183838
0.190979
0.196289
0.203003
0.207153
0.205078
0.207031
0.209473
0.207031
0.201904
0.196777
0.19635
0.198914
0.191833
0.193726
0.190308
0.188232
0.183594
0.181702
0.183594
0.183533
0.183228
0.178101
0.167725
0.152771
0.138123
0.13324
0.123352
0.109314
0.0940552
0.0780029
0.0720825
0.0567627
0.0526733
0.0488892
0.0447388
0.0396118
0.0350952
0.0324097
0.0286865
0.03125
0.0305176
0.0272217
0.0275269
0.0180664
0.012207
0.00604248
-0.000732422
0.00219727
-0.00323486
-0.00170898
-0.00262451
0.00128174
-0.00372314
-0.00634766
-0.0154419
-0.0213013
-0.019165
-0.020752
-0.0231934
-0.0231323
-0.0178833
-0.0166626
-0.0144043
-0.00994873
-0.0124512
-0.0161743
-0.0214844
-0.0257568
-0.0346069
-0.0353394
-0.0409546
-0.0473022
-0.0535278
-0.0518799
-0.062561
-0.0646973
-0.0687256
-0.0748291
-0.0722046
-0.0723267
-0.0772705
-0.0747681
-0.0717773
-0.0723267
-0.074585
-0.0719604
-0.0720825
-0.0784912
-0.0847168
-0.0914307
-0.0892944
-0.0900269
-0.0942383
-0.0845337
-0.0834351
-0.0811157
-0.0724487
-0.0783081
-0.0766602
-0.0769653
-0.0767822
-0.0742188
-0.0713501
-0.0712891
-0.0709839
-0.0732422
-0.0726929
-0.0755615
-0.0754395
-0.074646
-0.0737305
-0.0773315
-0.0802002
-0.0749512
-0.0731812
-0.0735474
-0.0706787
-0.0725098
-0.0670166
-0.06604
-0.0632324
-0.065979
-0.0662231
-0.0668945
-0.067749
-0.0635376
-0.0566406
-0.0540161
-0.0570679
-0.05896
-0.0649414
-0.06427
-0.0594482
-0.0652466
-0.0646973
-0.0671387
-0.0608521
-0.0626221
-0.0617676
-0.0606689
-0.0614014
-0.0585327
-0.0615845
-0.057251
-0.0570068
-0.0587769
-0.0540771
-0.0557251
-0.0565186
-0.0518188
-0.0530396
-0.0494995
-0.046814
-0.0516357
-0.0482788
-0.0474243
-0.0539551
-0.057373
-0.0565186
-0.0516357
-0.0548706
-0.0462036
-0.0447388
-0.0441284
-0.0426636
-0.0419922
-0.0343018
-0.0292969
-0.0230713
-0.0203247
-0.0134888
-0.00250244
0.00512695
0.0181885
0.0287476
0.0327148
0.0413818
0.0536499
0.0646362
0.0753784
0.0926514
0.100952
0.11438
0.127197
0.141113
0.144348
0.149658
0.153748
0.155762
0.158569
0.158752
0.161621
0.164063
0.168518
0.167603
0.171936
0.177673
0.169495
0.169128
0.163086
0.155457
0.151917
0.149658
0.142212
0.138672
0.140564
0.134583
0.126892
0.114502
0.10968
0.0945435
0.0825806
0.0726929
0.0678711
0.0618286
0.0522461
0.0428467
0.0327759
0.0200195
0.00964355
0.00280762
-0.00970459
-0.015625
-0.0183105
-0.0164795
-0.0205078
-0.0264282
-0.0348511
-0.0351563
-0.0379639
-0.0423584
-0.0374756
-0.0297241
-0.0283203
-0.022522
-0.019165
-0.0202637
-0.0157471
-0.0128174
-0.013916
-0.0106201
-0.00732422
-0.00482178
-0.00994873
-0.0109863
-0.00866699
-0.00842285
-0.00549316
-0.00640869
-0.00994873
-0.00646973
-0.00604248
-0.00762939
-0.0102539
-0.0134888
-0.0177612
-0.0213013
-0.0222778
-0.0252686
-0.0259399
-0.0343628
-0.0328979
-0.0343018
-0.0341187
-0.034729
-0.0337524
-0.0366211
-0.0368042
-0.0404053
-0.0415039
-0.0458984
-0.0526123
-0.055603
-0.059082
-0.0610962
-0.0640869
-0.0707397
-0.0686646
-0.0686646
-0.0725708
-0.0646973
-0.0633545
-0.0636597
-0.0657349
-0.0715942
-0.0704346
-0.0657349
-0.0666504
-0.0709229
-0.0743408
-0.0731812
-0.0742188
-0.0766602
-0.0780029
-0.0747681
-0.0697632
-0.0738525
-0.0699463
-0.0728149
-0.0767822
-0.0742798
-0.0705566
-0.0697632
-0.0645142
-0.0625
-0.0629883
-0.0621338
-0.0656128
-0.0623169
-0.0518799
-0.0534058
-0.0490723
-0.0488281
-0.0499878
-0.0473633
-0.0492554
-0.0530396
-0.0500488
-0.050293
-0.0525513
-0.0527954
-0.053894
-0.0532837
-0.0490112
-0.0487061
-0.0560913
-0.0546875
-0.0535278
-0.0491943
-0.0460815
-0.0460815
-0.0361938
-0.02948
-0.0263062
-0.027832
-0.0385742
-0.0325317
-0.0308228
-0.0236816
-0.0231323
-0.0169067
-0.0199585
-0.0155029
-0.019043
-0.0140381
-0.0116577
-0.00341797
0.00158691
0.000488281
0.00292969
0.0144653
0.0230103
0.0314331
0.0409546
0.0506592
0.0649414
0.0704956
0.0820923
0.0906982
0.102722
0.108826
0.119751
0.12616
0.135742
0.143311
0.139648
0.133972
0.130249
0.130432
0.128174
0.128601
0.129517
0.122986
0.120422
0.115417
0.109985
0.103943
0.0963135
0.0834961
0.0764771
0.067688
0.0606689
0.0604248
0.0545654
0.0463257
0.0454712
0.038269
0.0328369
0.0292358
0.0189819
0.0162354
0.00708008
0.00268555
0.003479
-0.00488281
-0.00860596
-0.00842285
-0.0164795
-0.0203247
-0.0236816
-0.0274658
-0.0300293
-0.0288696
-0.0308228
-0.0304565
-0.0358887
-0.0291748
-0.0304565
-0.0296631
-0.0321045
-0.0305176
-0.0257568
-0.0182495
-0.0136719
-0.0144653
-0.0115356
-0.00585938
-0.00341797
-0.00012207
0.00244141
0.00012207
0.00598145
0.00982666
0.00695801
0.0117188
0.00897217
0.00836182
0.0101318
0.0129395
0.0101929
0.0119629
0.0111694
0.0115967
0.00415039
0.0045166
0.0022583
-0.00933838
-0.0154419
-0.015564
-0.012085
-0.0100708
-0.0147095
-0.0155029
-0.0154419
-0.0136719
-0.019043
-0.0236206
-0.0253906
-0.0298462
-0.03125
-0.0308838
-0.0296631
-0.0325317
-0.0311279
-0.0324707
-0.0372314
-0.0422363
-0.0408325
-0.0438843
-0.0492554
-0.0525513
-0.0547485
-0.0516357
-0.0528564
-0.053833
-0.0534058
-0.0528564
-0.0525513
-0.050415
-0.0532837
-0.0548706
-0.0649414
-0.0639648
-0.0623779
-0.0652466
-0.0634766
-0.0632324
-0.0635376
-0.0605469
-0.0592651
-0.0667114
-0.0645752
-0.0597534
-0.0578003
-0.0544434
-0.052063
-0.0549927
-0.0578003
-0.0585327
-0.0551758
-0.0560303
-0.0493774
-0.0485229
-0.0460815
-0.0479736
-0.0461426
-0.0461426
-0.0533447
-0.0523682
-0.0510864
-0.0562134
-0.0525513
-0.0461426
-0.0360107
-0.0291748
-0.0235596
-0.0142212
-0.00695801
-0.00250244
0.0107422
0.00958252
0.0251465
0.0389404
0.0508423
0.0603638
0.0723267
0.0849609
0.0980835
0.112976
0.12738
0.144409
0.156616
0.168457
0.179626
0.188843
0.187988
0.184448
0.18689
0.192566
0.188416
0.190857
0.186218
0.18103
0.174377
0.172791
0.173645
0.171387
0.162048
0.145691
0.136047
0.130615
0.122192
0.121887
0.117493
0.114258
0.110046
0.1073
0.101746
0.0953979
0.0903931
0.0696411
0.0513916
0.0326538
0.0254517
0.0117798
-0.00646973
-0.00701904
-0.00811768
-0.0119019
-0.0119629
-0.00921631
-0.0139771
-0.00933838
-0.0124512
-0.0193481
-0.0255737
-0.0324097
-0.0301514
-0.0267334
-0.0285645
-0.0286865
-0.0306396
-0.0288086
-0.0317993
-0.0308228
-0.0279541
-0.0272217
-0.0301514
-0.0272217
-0.0258179
-0.020752
-0.0220947
-0.0157471
-0.0126953
-0.0140381
-0.00909424
-0.0119629
-0.00549316
-0.00964355
-0.0129395
-0.0161743
-0.0185547
-0.0213013
-0.0251465
-0.0266113
-0.0263062
-0.0314331
-0.0352173
-0.0418091
-0.0480957
-0.0527344
-0.0608521
-0.0637207
-0.0632935
-0.064209
-0.0705566
-0.0699463
-0.0669556
-0.0668335
-0.0626831
-0.0571899
-0.057373
-0.0611572
-0.0650024
-0.0683594
-0.0703735
-0.0670166
-0.0643921
-0.0661011
-0.0596924
-0.0621338
-0.0691528
-0.0740356
-0.0839233
-0.0864258
-0.0877686
-0.0865479
-0.0893555
-0.0874023
-0.0827637
-0.0847778
-0.0953369
-0.0908813
-0.0912476
-0.0910645
-0.0856934
-0.0857544
-0.0840454
-0.0849609
-0.0844727
-0.0893555
-0.090271
-0.0918579
-0.0953369
-0.0974121
-0.100525
-0.105896
-0.109619
-0.116272
-0.116699
-0.117249
-0.122009
-0.122314
-0.11377
-0.113892
-0.109131
-0.108459
-0.106934
-0.111206
-0.10675
-0.10437
-0.102783
-0.0971069
-0.100098
-0.0927734
-0.0929565
-0.0872803
-0.0767212
-0.0706177
-0.0640869
-0.0507202
-0.0389404
-0.0255127
-0.0131226
0.00622559
0.0267334
0.0380249
0.0541992
0.06604
0.081543
0.100647
0.113098
0.136597
0.157349
0.174316
0.182373
0.189453
0.195618
0.19519
0.205322
0.212097
0.218811
0.219788
0.230774
0.233398
0.237732
0.23877
0.237488
0.235718
0.238708
0.233948
0.229797
0.226135
0.223755
0.214905
0.207336
0.200928
0.195129
0.193359
0.18219
0.170227
0.160828
0.155273
0.146118
0.14447
0.136597
0.128235
0.117981
0.106689
0.09198
0.085144
0.0617676
0.0440063
0.0252686
0.0169678
0.00115967
-0.00860596
-0.020813
-0.0343018
-0.0386963
-0.0438843
-0.0506592
-0.0617065
-0.0637817
-0.0632935
-0.0636597
-0.0682983
-0.0645752
-0.0588989
-0.0490723
-0.0421143
-0.0424194
-0.0388184
-0.0419312
-0.0464478
-0.0366211
-0.0314331
-0.0325317
-0.0344238
-0.0354004
-0.0356445
-0.0368042
-0.0387573
-0.0380859
-0.0432129
-0.0343628
-0.0317383
-0.0271606
-0.0274658
-0.0189819
-0.0132446
-0.0101318
-0.0111694
-0.00701904
-0.00701904
0.00286865
0.00177002
-0.000427246
-0.0043335
-0.00549316
-0.00598145
-0.0148315
-0.0188599
-0.0217285
-0.0279541
-0.0344238
-0.0377197
-0.0410156
-0.0488281
-0.0529175
-0.0615234
-0.0634155
-0.0673828
-0.0738525
-0.0772095
-0.079834
-0.0742188
-0.0701904
-0.0619507
-0.0579224
-0.052124
-0.0500488
-0.0467529
-0.0447388
-0.045166
-0.0481567
-0.0529785
-0.0545654
-0.0524902
-0.0506592
-0.0495605
-0.0474243
-0.0444336
-0.0472412
-0.0458984
-0.046875
-0.0477905
-0.0499268
-0.0471802
-0.039917
-0.0437012
-0.0441284
-0.046936
-0.0460815
-0.0467529
-0.048645
-0.0458984
-0.0494995
-0.0527344
-0.0531616
-0.0602417
-0.0703735
-0.0670776
-0.0666504
-0.0723877
-0.0777588
-0.0792236
-0.0800171
-0.0820923
-0.0776978
-0.0717163
-0.0647583
-0.05896
-0.0521851
-0.0467529
-0.0457764
-0.0465698
-0.0420532
-0.0310669
-0.0192261
-0.00915527
0.000976563
0.00836182
0.0163574
0.0297241
0.0391846
0.0551147
0.0692749
0.0843506
0.101624
0.114929
0.137817
0.156616
0.176697
0.196472
0.213074
0.221313
0.234375
0.245483
0.252625
0.263
0.254822
0.251038
0.241882
0.23822
0.222107
0.221191
0.216431
0.216675
0.209534
0.203674
0.198914
0.194946
0.191772
0.184387
0.179382
0.176392
0.163696
0.155701
0.143372
0.132996
0.121643
0.112854
0.10437
0.0933228
0.0772095
0.0641479
0.0524292
0.0476074
0.0357056
0.0351563
0.0310669
0.0268555
0.0245361
0.0271606
0.0194702
0.0183105
0.00915527
0.0010376
-0.00238037
-0.00213623
-0.0131226
-0.0167236
-0.0212402
-0.027832
-0.0283813
-0.0291138
-0.026123
-0.0265503
-0.0241699
-0.0219116
-0.0186768
-0.010498
-0.012085
-0.0168457
-0.0136108
-0.0163574
-0.0139771
-0.0131226
-0.0134277
-0.0136719
-0.0115967
-0.0134888
-0.0166016
-0.0194092
-0.0217285
-0.0272217
-0.0300293
-0.0376587
-0.0430908
-0.046875
-0.0397339
-0.0441895
-0.0485229
-0.0574951
-0.0637207
-0.0650635
-0.06427
-0.0648193
-0.0683594
-0.0712891
-0.0682373
-0.0640869
-0.0618896
-0.0667725
-0.069458
-0.0726929
-0.0737305
-0.0797119
-0.0790405
-0.0806885
-0.0818481
-0.0894775
-0.0870972
-0.0843506
-0.0849609
-0.0845337
-0.0886841
-0.0830688
-0.0839233
-0.083374
-0.083374
-0.0828247
-0.0894165
-0.0896606
-0.101135
-0.0964355
-0.09375
-0.0869751
-0.0834961
-0.076416
-0.0732422
-0.0700684
-0.0716553
-0.0686646
-0.0639648
-0.0585327
-0.0588989
-0.0576172
-0.057312
-0.0603638
-0.069397
-0.0723267
-0.0794678
-0.0858154
-0.0878296
-0.0891724
-0.0847168
-0.0792847
-0.0817261
-0.0767822
-0.0830688
-0.0786743
-0.0804443
-0.0795288
-0.0820923
-0.0792236
-0.0853271
-0.0817871
-0.0826416
-0.0791626
-0.0808716
-0.0806885
-0.081665
-0.0810547
-0.0775146
-0.0775757
-0.0859985
-0.0822144
-0.0810547
-0.0758667
-0.0633545
-0.0552368
-0.0410156
-0.0321655
-0.0195923
-0.00683594
0.00848389
0.0236206
0.039978
0.0606689
0.0891113
0.112
0.129272
0.149658
0.169678
0.188416
0.199463
0.210754
0.223022
0.233154
0.234314
0.242493
0.243713
0.245544
0.247437
0.24353
0.240906
0.234436
0.226807
0.225769
0.222473
0.211914
0.203247
0.198547
0.186584
0.172302
0.162415
0.155273
0.1474
0.140015
0.132874
0.123291
0.10968
0.0996704
0.0931396
0.0818481
0.069397
0.0577393
0.0490723
0.0396118
0.0317993
0.0197144
0.0116577
0.00256348
-0.00396729
-0.0147095
-0.0331421
-0.0274048
-0.0338135
-0.0335693
-0.0308228
-0.0283203
-0.0285645
-0.0314941
-0.0370483
-0.0373535
-0.0409546
-0.0377197
-0.0414429
-0.0466309
-0.0502319
-0.0510254
-0.0493164
-0.0476685
-0.046936
-0.0401001
-0.0403442
-0.0351563
-0.034729
-0.0328369
-0.0264893
-0.0253906
-0.0263062
-0.0268555
-0.0236816
-0.0248413
-0.0290527
-0.0303955
-0.036499
-0.0386353
-0.0402832
-0.0456543
-0.0463257
-0.0523682
-0.0570679
-0.0637817
-0.0688477
-0.0707397
-0.0656128
-0.0654297
-0.0667114
-0.0661621
-0.0714722
-0.0686035
-0.0674438
-0.0667114
-0.0678101
-0.0668335
-0.0653687
-0.0623779
-0.059021
-0.0617676
-0.0609131
-0.0581055
-0.0563354
-0.059021
-0.0608521
-0.0587769
-0.0548706
-0.0584717
-0.0595093
-0.0637817
-0.0643921
-0.0703735
-0.0725098
-0.0762329
-0.0782471
-0.0780029
-0.0788574
-0.0823364
-0.0847778
-0.0784912
-0.0756226
-0.0762329
-0.0713501
-0.0722656
-0.0647583
-0.0610352
-0.06427
-0.0720825
-0.0689087
-0.0651245
-0.0673218
-0.0616455
-0.0722046
-0.0754395
-0.0770264
-0.079834
-0.0791626
-0.0813599
-0.0765381
-0.0728149
-0.0745239
-0.0744019
-0.0681152
-0.0661011
-0.0706787
-0.0678711
-0.0738525
-0.0726318
-0.0739746
-0.0722656
-0.0662231
-0.0629272
-0.0612183
-0.0603638
-0.0510864
-0.0492554
-0.043335
-0.0365601
-0.0314941
-0.0301514
-0.0230103
-0.0115356
-0.00579834
0.00708008
0.0203247
0.0350342
0.0509644
0.0612183
0.0782471
0.0933228
0.112854
0.13678
0.154419
0.166626
0.176514
0.185486
0.199463
0.201843
0.205322
0.20636
0.203613
0.205322
0.205383
0.202454
0.205505
0.196594
0.186707
0.181152
0.173584
0.168579
0.162903
0.160156
0.150879
0.142212
0.133179
0.121033
0.112915
0.101563
0.0883789
0.0830078
0.0737305
0.0623169
0.0495605
0.0333862
0.022583
0.0215454
0.012207
-0.00482178
-0.00726318
-0.0120239
-0.0186157
-0.0169067
-0.0215454
-0.0264893
-0.0319214
-0.0407104
-0.0412598
-0.0429077
-0.0413208
-0.0363159
-0.0387573
-0.0354614
-0.0377808
-0.03302
-0.0223389
-0.0272827
-0.0217896
-0.017334
-0.0123291
-0.0130005
-0.0143433
-0.00268555
-0.00396729
-0.00231934
-0.0043335
0.000610352
0.00134277
0.000366211
-0.00500488
-0.00427246
-0.00372314
-0.00445557
-0.00994873
-0.0167236
-0.020752
-0.0196533
-0.0274658
-0.032959
-0.0419312
-0.0438232
-0.0452271
-0.0499268
-0.0452881
-0.0449829
-0.039978
-0.039917
-0.0368042
-0.0374756
-0.034668
-0.0350342
-0.036438
-0.0325317
-0.0328369
-0.0374146
-0.0360718
-0.0387573
-0.0385742
-0.0442505
-0.0501709
-0.0479736
-0.0540771
-0.0649414
-0.0707397
-0.0748901
-0.0776367
-0.0779419
-0.0800781
-0.0819702
-0.0904541
-0.0913086
-0.0890503
-0.0910034
-0.088562
-0.088501
-0.0880127
-0.0888062
-0.097168
-0.102051
-0.101624
-0.102783
-0.104736
-0.105042
-0.110596
-0.104919
-0.102722
-0.0963745
-0.0955811
-0.0886841
-0.086853
-0.0864258
-0.0820313
-0.0811157
-0.0811157
-0.0877075
-0.0859375
-0.0914307
-0.0896606
-0.0891724
-0.097168
-0.093689
-0.0917358
-0.0875244
-0.0915527
-0.0893555
-0.0912476
-0.0855103
-0.0828857
-0.0838623
-0.0865479
-0.085144
-0.0784302
-0.069458
-0.0684814
-0.062561
-0.0551758
-0.0452881
-0.0324097
-0.0248413
-0.00823975
0.00640869
0.0178833
0.0366821
0.0516968
0.0682983
0.0922852
0.116882
0.13562
0.159973
0.164429
0.183289
0.196716
0.215515
0.218567
0.231445
0.232727
0.238892
0.246094
0.241455
0.240784
0.235779
0.225037
0.217712
0.207336
0.196411
0.182373
0.17395
0.167175
0.155884
0.148254
0.136902
0.130615
0.120789
0.121094
0.111572
0.102905
0.0939941
0.0820313
0.0721436
0.0604248
0.0447388
0.0323486
0.0181885
0.00280762
-0.00549316
-0.0110474
-0.017395
-0.0204468
-0.0217285
-0.0280762
-0.0355835
-0.0476685
-0.0578613
-0.0603027
-0.0613403
-0.0617676
-0.0576172
-0.0551147
-0.0571289
-0.0567627
-0.0513306
-0.0421753
-0.0380859
-0.03302
-0.0302734
-0.0319214
-0.0291748
-0.0307617
-0.031311
-0.0249634
-0.0162964
-0.012146
-0.00585938
-0.00506592
-0.00708008
-0.0147705
-0.0186157
-0.022522
-0.024353
-0.0245361
-0.0344238
-0.0429688
-0.0514526
-0.0521851
-0.053833
-0.0570679
-0.0603027
-0.0628662
-0.0637817
-0.0673828
-0.071106
-0.0751343
-0.0723877
-0.0722656
-0.0730591
-0.0795288
-0.0819702
-0.0863037
-0.0863647
-0.0882568
-0.0895386
-0.0819092
-0.0789185
-0.0755615
-0.0791626
-0.0774536
-0.0845337
-0.0822754
-0.0818481
-0.0842896
-0.0859985
-0.0863037
-0.0836792
-0.0820923
-0.0855103
-0.081543
-0.0838623
-0.0831299
-0.086792
-0.0861816
-0.0823975
-0.0795898
-0.0762939
-0.0778809
-0.0742798
-0.0799561
-0.0793457
-0.0830078
-0.0786133
-0.076355
-0.0754395
-0.0787354
-0.0856323
-0.0905151
-0.0999756
-0.0992432
-0.102722
-0.111023
-0.113892
-0.108887
-0.103699
-0.10199
-0.100952
-0.0998535
-0.103088
-0.107544
-0.106445
-0.110168
-0.107971
-0.108948
-0.107178
-0.113403
-0.118469
-0.111938
-0.108643
-0.104492
-0.106018
-0.100586
-0.10614
-0.111206
-0.107849
-0.111206
-0.110229
-0.110291
-0.109619
-0.0986938
-0.0863647
-0.0742798
-0.0633545
-0.0535278
-0.041687
-0.0290527
-0.0213013
-0.00439453
0.00439453
0.0249634
0.0419922
0.0629883
0.0786743
0.0987549
0.118713
0.133728
0.147888
0.156921
0.16864
0.180664
0.180725
0.188843
0.197937
0.207886
0.207458
0.21167
0.208008
0.203735
0.199707
0.197876
0.198242
0.192078
0.191345
0.188171
0.18396
0.185791
0.176514
0.171692
0.172241
0.173279
0.172791
0.169312
0.163757
0.157104
0.143738
0.141541
0.129211
0.116882
0.106323
0.0929565
0.0819092
0.0759888
0.0744629
0.0625
0.0532227
0.043457
0.0366211
0.0346069
0.0362549
0.0343628
0.0308838
0.0298462
0.0245361
0.0197144
0.0177612
0.0117188
0.00872803
0.00683594
0.00549316
0.00488281
0.00109863
0.00012207
-0.00549316
-0.00744629
-0.00701904
-0.00653076
-0.00457764
-0.0113525
-0.0107422
-0.015686
-0.0179443
-0.0159912
-0.0203247
-0.020874
-0.0240479
-0.0290527
-0.0330811
-0.0373535
-0.0410156
-0.0506592
-0.0493774
-0.0482788
-0.0493774
-0.0595093
-0.0565186
-0.0544434
-0.0558472
-0.0594482
-0.0615845
-0.0686646
-0.0689087
-0.0665283
-0.0707397
-0.0670776
-0.0744629
-0.0760498
-0.0739746
-0.0778809
-0.0795898
-0.0792847
-0.0842896
-0.0873413
-0.0933228
-0.0946045
-0.097168
-0.102478
-0.110657
-0.113159
-0.113953
-0.114441
-0.117188
-0.112122
-0.110413
-0.102417
-0.0976563
-0.0894775
-0.0761108
-0.0688477
-0.0657349
-0.0629883
-0.060791
-0.0584106
-0.0596313
-0.0562744
-0.0527344
-0.0522461
-0.0534058
-0.0529175
-0.0442505
-0.0437012
-0.0412598
-0.0410156
-0.0386963
-0.0406494
-0.0465088
-0.0456543
-0.0442505
-0.0455322
-0.0409546
-0.0501709
-0.0510864
-0.0599976
-0.0653687
-0.0664673
-0.0733643
-0.0751343
-0.0771484
-0.088501
-0.0960083
-0.100952
-0.1026
-0.0991211
-0.0975342
-0.0944824
-0.088623
-0.0834961
-0.0836182
-0.0825806
-0.0900269
-0.0891724
-0.0856323
-0.0818481
-0.0715332
-0.0667114
-0.0718384
-0.0664673
-0.0703125
-0.0692749
-0.0703735
-0.0734863
-0.0697632
-0.0654297
-0.0594482
-0.055542
-0.0513916
-0.0388184
-0.0267944
-0.0139771
-0.00164795
0.0088501
0.0198364
0.03125
0.0435181
0.065918
0.0856323
0.104919
0.128296
0.149353
0.172913
0.185608
0.199463
0.211914
0.223328
0.233521
0.231995
0.241272
0.243164
0.247803
0.247742
0.243164
0.237366
0.234741
0.224182
0.210999
0.200439
0.197632
0.191284
0.179443
0.167053
0.151367
0.13739
0.13031
0.122009
0.119385
0.108582
0.105469
0.0983887
0.0908203
0.0870361
0.0803833
0.0709839
0.0669556
0.0603638
0.0559082
0.0452271
0.0372314
0.0270386
0.0170898
0.0114746
0.00927734
-0.000854492
-0.00531006
-0.0109253
-0.012146
-0.0231934
-0.0241089
-0.0255127
-0.022644
-0.0223999
-0.0293579
-0.0355835
-0.0302124
-0.0377197
-0.0390625
-0.0408936
-0.0418091
-0.0378418
-0.0352783
-0.0359497
-0.0380859
-0.038208
-0.0359497
-0.0331421
-0.0345459
-0.0318604
-0.0316772
-0.0252686
-0.0261841
-0.0250244
-0.0205078
-0.015564
-0.0159302
-0.0184937
-0.020752
-0.0192261
-0.024231
-0.0246582
-0.0287476
-0.0288696
-0.0371704
-0.0359497
-0.0300293
-0.0314941
-0.0374146
-0.0350952
-0.0391846
-0.0365601
-0.0349121
-0.0360107
-0.0313721
-0.0333862
-0.0341797
-0.03125
-0.0412598
-0.050354
-0.0487061
-0.0437012
-0.0493774
-0.0500488
-0.057373
-0.0540771
-0.0537109
-0.0579224
-0.0615845
-0.0650635
-0.065979
-0.0687256
-0.0745239
-0.0686646
-0.0696411
-0.0697632
-0.0735474
-0.0697021
-0.0665283
-0.0635986
-0.0681763
-0.0612793
-0.055481
-0.0516968
-0.0497437
-0.0512085
-0.0585327
-0.0580444
-0.0610352
-0.0631714
-0.0672607
-0.0700684
-0.0689087
-0.0722046
-0.0725708
-0.0741577
-0.0740356
-0.0692139
-0.069519
-0.0650635
-0.0640869
-0.0687866
-0.071228
-0.0689697
-0.0652466
-0.0690918
-0.0731201
-0.0704346
-0.0772705
-0.0806274
-0.0823364
-0.0861816
-0.0919189
-0.0953369
-0.0924072
-0.086731
-0.0809937
-0.0819702
-0.0811768
-0.0836182
-0.0806885
-0.0765381
-0.0742188
-0.0722656
-0.074585
-0.0792847
-0.0799561
-0.0777588
-0.0742188
-0.0708618
-0.0664673
-0.0618896
-0.0580444
-0.0473633
-0.0401611
-0.0352783
-0.0270996
-0.017395
-0.00878906
0.000488281
0.00634766
0.0221558
0.0358276
0.0465698
0.0576172
0.0768433
0.0899048
0.103455
0.115601
0.13269
0.13916
0.151001
0.155518
0.15979
0.165894
0.170349
0.172241
0.180725
0.187805
0.188416
0.191528
0.185669
0.179932
0.171082
0.172119
0.164246
0.150635
0.145874
0.140564
0.12793
0.120483
0.116333
0.11438
0.109619
0.10437
0.101624
0.0944824
0.083313
0.0748291
0.0704346
0.0581055
0.0557861
0.0516357
0.0410156
0.0339966
0.0350952
0.0322266
0.0332642
0.0258179
0.0192871
0.0200195
0.0155029
0.0157471
0.0116577
0.00384521
0.00292969
0.000976563
-0.00793457
-0.0122681
-0.013916
-0.0153198
-0.0167847
-0.0162354
-0.00970459
-0.00592041
-0.00195313
-0.00854492
-0.0108643
-0.0145264
-0.0177612
-0.0175171
-0.0158081
-0.0187378
-0.0236206
-0.0254517
-0.0235596
-0.020874
-0.0220337
-0.0216675
-0.0270996
-0.0238647
-0.0235596
-0.0218506
-0.0228882
-0.0272827
-0.0320435
-0.0325928
-0.038208
-0.0422363
-0.0459595
-0.0487671
-0.0501709
-0.057312
-0.0568848
-0.0525513
-0.057373
-0.0577393
-0.0592651
-0.0646362
-0.0690918
-0.0726318
-0.0744019
-0.0769043
-0.0773926
-0.0843506
-0.0927124
-0.101563
-0.103455
-0.102478
-0.101074
-0.0961304
-0.0910645
-0.0794067
-0.0747681
-0.069458
-0.0717163
-0.067749
-0.0732422
-0.0786133
-0.0685425
-0.067749
-0.0670166
-0.0663452
-0.0717163
-0.0735474
-0.0769653
-0.0778198
-0.0848999
-0.0817261
-0.0768433
-0.0721436
-0.0699463
-0.0675659
-0.0731812
-0.0723877
-0.0697021
-0.0627441
-0.0548096
-0.0585938
-0.0594482
-0.0561523
-0.0597534
-0.0661011
-0.071228
-0.0795288
-0.0853882
-0.0895996
-0.093689
-0.0934448
-0.0913696
-0.0894775
-0.0889893
-0.0942993
-0.0909424
-0.0910645
-0.0880737
-0.086731
-0.0836792
-0.0802612
-0.0784912
-0.0878296
-0.0830688
-0.0806274
-0.078125
-0.0741577
-0.0753784
-0.0691528
-0.0645752
-0.0645752
-0.0548096
-0.0493164
-0.0444336
-0.0393066
-0.0306396
-0.0180054
0.0032959
0.0103149
0.0275879
0.0411987
0.0523682
0.0695801
0.0803223
0.0935669
0.103149
0.112244
0.117371
0.12561
0.129578
0.125427
0.12439
0.128967
0.13147
0.137634
0.139465
0.140869
0.139465
0.133667
0.130981
0.121521
0.108643
0.100098
0.0888672
0.0892334
0.0814819
0.0726318
0.065979
0.0575562
0.057373
0.0494995
0.0376587
0.0286255
0.0235596
0.0128784
0.00476074
0.000610352
-0.012085
-0.0186157
-0.0267944
-0.0349731
-0.041687
-0.0454712
-0.0489502
-0.048584
-0.0515137
-0.0518188
-0.0532837
-0.0512695
-0.0492554
-0.0515747
-0.0528564
-0.0536499
-0.0549927
-0.059021
-0.0551758
-0.0547485
-0.0551758
-0.0517578
-0.0516357
-0.0428467
-0.0331421
-0.031189
-0.0307617
-0.0310059
-0.0248413
-0.0237427
-0.0230713
-0.0139771
-0.0159302
-0.0133667
-0.0119019
-0.012085
-0.0166016
-0.0157471
-0.0186157
-0.0169067
-0.0177612
-0.0220947
-0.0250244
-0.0321655
-0.0388794
-0.0396729
-0.0404053
-0.0360718
-0.039856
-0.0389404
-0.0341797
-0.0386353
-0.0396118
-0.0444336
-0.0498047
-0.0463257
-0.0441895
-0.0415039
-0.0404053
-0.0420532
-0.0352173
-0.0318604
-0.0327759
-0.0404053
-0.0465088
-0.0499878
-0.0523682
-0.0581665
-0.0629883
-0.0629883
-0.0650635
-0.0712891
-0.0700073
-0.0680542
-0.0690918
-0.0724487
-0.0722046
-0.0726929
-0.0737305
-0.0704346
-0.0684814
-0.0627441
-0.052002
-0.050293
-0.0467529
-0.0441895
-0.046936
-0.0524902
-0.050293
-0.0609131
-0.0667725
-0.0680542
-0.0635986
-0.065918
-0.0683594
-0.0662842
-0.0575562
-0.0578613
-0.0534058
-0.0507202
-0.0446777
-0.0494385
-0.0479736
-0.0449829
-0.0446167
-0.0336304
-0.0283203
-0.0220337
-0.0203247
-0.0175781
-0.0167236
-0.0139771
-0.0164795
-0.00970459
-0.0133667
-0.0171509
-0.0137939
-0.0045166
0.00915527
0.0163574
0.0310669
0.0374756
0.0464478
0.0647583
0.0813599
0.0992432
0.119019
0.131104
0.14325
0.151367
0.155029
0.15625
0.160339
0.166443
0.170166
0.164551
0.161743
0.166077
0.167175
0.1651
0.166321
0.160156
0.158691
0.158752
0.154419
0.145874
0.14032
0.12854
0.11908
0.111511
0.0982056
0.0853271
0.0734253
0.0587158
0.0524292
0.0460205
0.0303345
0.0227051
0.0117188
0.00256348
-0.00335693
-0.00598145
-0.00842285
-0.010498
-0.00653076
-0.00585938
-0.00732422
-0.00842285
-0.0078125
-0.00817871
-0.0102539
-0.0152588
-0.0152588
-0.015686
-0.0193481
-0.0194092
-0.0197144
-0.0151978
-0.0078125
-0.00469971
0.00128174
0.00695801
0.00549316
0.00653076
0.00817871
0.0116577
0.003479
-0.00012207
-0.00164795
0.00378418
0.00866699
0.0145264
0.0106201
0.0100098
0.00610352
0.00280762
0.00463867
0.00335693
0
-0.00598145
-0.0126953
-0.0112305
-0.00708008
-0.00579834
-0.0118408
-0.0113525
-0.0162354
-0.0172729
-0.0186768
-0.0219116
-0.0278931
-0.0289307
-0.0272217
-0.0269775
-0.026123
-0.0187378
-0.020752
-0.0249634
-0.022522
-0.0324097
-0.0373535
-0.0298462
-0.0359497
-0.0314331
-0.0396729
-0.0407715
-0.0377197
-0.0321045
-0.0315552
-0.0322266
-0.0409546
-0.03302
-0.0301514
-0.0307617
-0.0355835
-0.0350342
-0.0447998
-0.0548706
-0.0562134
-0.0598145
-0.0617065
-0.0629272
-0.0658569
-0.0682983
-0.0717163
-0.0697021
-0.0715332
-0.078064
-0.0792236
-0.0820923
-0.0881348
-0.0813599
-0.0809937
-0.0780029
-0.0820923
-0.0757446
-0.0678101
-0.0648193
-0.0609741
-0.0585327
-0.0635986
-0.0535889
-0.0471802
-0.045166
-0.0449829
-0.0371704
-0.0319214
-0.0285034
-0.0273438
-0.0236816
-0.0181885
-0.0174561
-0.0088501
-0.000366211
0.0111084
0.0213623
0.0367432
0.0512085
0.0685425
0.0849609
0.100037
0.117371
0.135376
0.154602
0.173035
0.182861
0.198975
0.21582
0.230835
0.24054
0.252869
0.263428
0.272339
0.272095
0.272705
0.274902
0.272949
0.271973
0.26886
0.267639
0.260559
0.261841
0.255615
0.242676
0.227234
0.216553
0.205383
0.196533
0.18689
0.174133
0.163696
0.157166
0.143921
0.140015
0.131042
0.121277
0.11554
0.108398
0.0980225
0.0942383
0.0844116
0.0695801
0.0564575
0.0412598
0.0360107
0.0252075
0.0136719
0.0043335
-0.00262451
-0.00714111
-0.017395
-0.0200806
-0.0283203
-0.0314331
-0.0333862
-0.0438843
-0.0430908
-0.0436401
-0.0409546
-0.0336304
-0.0266724
-0.0213013
-0.0250854
-0.0172119
-0.0164185
-0.0181274
-0.0142212
-0.0109863
-0.0147095
-0.0182495
-0.0155029
-0.0142822
-0.0147095
-0.0128784
-0.0151367
-0.0106812
-0.0130615
-0.019043
-0.0212402
-0.0199585
-0.0203247
-0.0186768
-0.0176392
-0.0272827
-0.0274658
-0.0249634
-0.0249023
-0.0308838
-0.0338135
-0.0313721
-0.0346069
-0.043457
-0.0464478
-0.053772
-0.0622559
-0.0668945
-0.0666504
-0.0698242
-0.0698242
-0.0652466
-0.0623779
-0.0640869
-0.0628662
-0.0675659
-0.0755615
-0.0772705
-0.0887451
-0.0953369
-0.0912476
-0.0896606
-0.0963745
-0.102295
-0.110168
-0.114136
-0.109802
-0.104004
-0.101563
-0.0930786
-0.0932007
-0.0944214
-0.0932007
-0.0910645
-0.0906982
-0.0914917
-0.0946045
-0.0957031
-0.0967407
-0.0874634
-0.0835571
-0.0819092
-0.0819092
-0.0860596
-0.0871582
-0.0900879
-0.0882568
-0.0879517
-0.0836792
-0.0822144
-0.081543
-0.0819702
-0.0742188
-0.0715942
-0.0621338
-0.0673218
-0.06604
-0.0675049
-0.0716553
-0.0740356
-0.0852661
-0.0894775
-0.0884399
-0.0794067
-0.0690918
-0.0551147
-0.0462036
-0.0355225
-0.0367432
-0.0289917
-0.0192261
-0.00561523
0.0090332
0.0140991
0.0303345
0.0429077
0.0553589
0.0623169
0.0680542
0.0838623
0.102661
0.117676
0.139709
0.152466
0.166443
0.185791
0.203186
0.221008
0.233643
0.235413
0.247498
0.249268
0.249451
0.249451
0.246887
0.248169
0.247253
0.243408
0.244385
0.242493
0.239929
0.239685
0.233032
0.225098
0.215698
0.195984
0.190674
0.183777
0.175171
0.170837
0.160828
0.153931
0.140686
0.133789
0.124268
0.11322
0.111267
0.109253
0.106201
0.0944824
0.0906372
0.0814819
0.0774536
0.0696411
0.0668945
0.0641479
0.0509033
0.0473633
0.0394897
0.039856
0.0392456
0.0358887
0.0344849
0.0288086
0.0236206
0.024231
0.024231
0.0289917
0.0314331
0.0289917
0.0306396
0.0303345
0.0354614
0.0308228
0.0257568
0.0252075
0.0250244
0.0283813
0.0293579
0.0286865
0.0304565
0.0275269
0.0284424
0.0234375
0.0253296
0.0305786
0.0296631
0.0245972
0.0246582
0.0219727
0.0231323
0.0125732
0.00799561
0.00164795
-0.00537109
-0.0146484
-0.0220337
-0.0228271
-0.0269165
-0.0342407
-0.0374756
-0.0408325
-0.046936
-0.0496216
-0.0491943
-0.0533447
-0.0613403
-0.0615845
-0.0618896
-0.0626221
-0.0634766
-0.0678101
-0.0720215
-0.0734863
-0.0778809
-0.0855713
-0.086792
-0.0897827
-0.0936279
-0.0945435
-0.0882568
-0.0922241
-0.0874023
-0.079895
-0.0759888
-0.0678101
-0.0644531
-0.065918
-0.0656738
-0.0637817
-0.0666504
-0.0680542
-0.0690918
-0.0740356
-0.0738525
-0.0708008
-0.0738525
-0.0791626
-0.0820923
-0.0916138
-0.0917969
-0.0979004
-0.0986328
-0.10553
-0.107605
-0.106934
-0.103516
-0.103027
-0.108643
-0.108826
-0.112915
-0.104858
-0.103821
-0.101807
-0.0982666
-0.0917969
-0.0928345
-0.092041
-0.0924683
-0.0974121
-0.0953979
-0.0881958
-0.081543
-0.0825195
-0.0809937
-0.0836792
-0.0810547
-0.0734253
-0.0728149
-0.0755615
-0.0671387
-0.0612793
-0.0571289
-0.0578003
-0.0427246
-0.0351563
-0.0256348
-0.0178833
-0.00732422
0.00756836
0.0170288
0.0250854
0.0435181
0.0612183
0.0767822
0.0963745
0.120544
0.149841
0.173401
0.206482
0.228821
0.25
0.261902
0.273987
0.282776
0.27478
0.283264
0.282654
0.280762
0.278015
0.276855
0.271973
0.268555
0.260132
0.256775
0.25708
0.249939
0.242126
0.240051
0.232849
0.229675
0.225708
0.216492
0.214905
0.200684
0.18988
0.179199
0.172485
0.167847
0.151489
0.144104
0.141174
0.132202
0.123718
0.117859
0.114502
0.107605
0.104065
0.0959473
0.0924072
0.0905151
0.0845947
0.0800171
0.0803223
0.078125
0.0667114
0.0440063
0.0283203
0.0188599
0.00500488
-0.00170898
-0.00805664
-0.0168457
-0.0137329
-0.00787354
-0.00390625
-0.00256348
-0.00396729
0.000366211
-0.00140381
-0.00201416
-0.00268555
-0.00848389
-0.00921631
-0.0151978
-0.0176392
-0.0206299
-0.0339355
-0.0357666
-0.0371094
-0.039917
-0.0354614
-0.0335693
-0.0341797
-0.0396118
-0.0420532
-0.0443115
-0.0443726
-0.0496826
-0.0505371
-0.055542
-0.0549927
-0.0527344
-0.0614624
-0.0621338
-0.0669556
-0.0670776
-0.0620728
-0.0657349
-0.0661621
-0.0709229
-0.076355
-0.081543
-0.0846558
-0.0864258
-0.0897827
-0.0886841
-0.086731
-0.0898438
-0.0960693
-0.0973511
-0.0946655
-0.0960693
-0.0971069
-0.0911865
-0.0875854
-0.0980225
-0.10376
-0.104736
-0.107605
-0.108276
-0.100098
-0.0958252
-0.0924683
-0.0950928
-0.0930786
-0.0938721
-0.0935059
-0.0942993
-0.0917969
-0.0953369
-0.0950928
-0.0976563
-0.0966797
-0.0997314
-0.104614
-0.10144
-0.0986328
-0.100281
-0.10437
-0.112122
-0.123047
-0.129639
-0.128601
-0.127563
-0.131531
-0.134094
-0.126587
-0.131653
-0.134644
-0.131653
-0.130127
-0.12854
-0.126648
-0.122742
-0.119019
-0.116028
-0.109436
-0.100342
-0.0932007
-0.0934448
-0.0948486
-0.0946655
-0.0966187
-0.0960083
-0.0899658
-0.0831909
-0.0825806
-0.0819092
-0.0799561
-0.0760498
-0.0755005
-0.0715332
-0.0654297
-0.0594482
-0.052063
-0.0443726
-0.0358276
-0.0229492
-0.0098877
0.00482178
0.0229492
0.0395508
0.0516968
0.0682983
0.088501
0.114563
0.131287
0.149109
0.159485
0.169006
0.176697
0.178284
0.179077
0.189514
0.195435
0.197937
0.199463
0.191345
0.18927
0.189697
0.19342
0.19812
0.195007
0.196411
0.192444
0.189819
0.186035
0.180481
0.171936
0.166748
0.168579
0.152466
0.151123
0.142334
0.13269
0.121521
0.108704
0.105774
0.0919189
0.0811768
0.0765381
0.0721436
0.0611572
0.0567627
0.0523682
0.0338745
0.0308838
0.0239258
0.0250244
0.0230713
0.0174561
0.0139771
0.00872803
0.00610352
0.0078125
-0.000183105
0.000549316
-0.00506592
-0.0114136
-0.0110474
-0.015686
-0.0153809
-0.0161743
-0.0219116
-0.0217285
-0.0211792
-0.0239258
-0.0187378
-0.0218506
-0.020813
-0.0213013
-0.0184937
-0.0200806
-0.019043
-0.0201416
-0.0194702
-0.0159302
-0.0154419
-0.0115356
-0.0128784
-0.0146484
-0.0188599
-0.0147705
-0.0212402
-0.0200195
-0.0270386
-0.0350952
-0.0457153
-0.0506592
-0.0593262
-0.0587158
-0.0675049
-0.0725708
-0.0720215
-0.0731201
-0.0724487
-0.0678101
-0.0742798
-0.0668945
-0.0684204
-0.0712891
-0.0707397
-0.0685425
-0.0654297
-0.0667725
-0.0703735
-0.0682373
-0.0629272
-0.0598755
-0.0628662
-0.0583496
-0.0562744
-0.0594482
-0.059082
-0.0559082
-0.0635986
-0.0683594
-0.0697632
-0.0782471
-0.0823975
-0.0912476
-0.0959473
-0.10321
-0.112366
-0.115662
-0.111816
-0.117188
-0.121094
-0.126465
-0.123779
-0.124451
-0.125061
-0.126099
-0.126709
-0.127014
-0.126648
-0.12146
-0.12561
-0.125732
-0.125305
-0.118469
-0.116699
-0.118103
-0.119629
-0.117981
-0.115112
-0.11145
-0.111084
-0.108459
-0.111084
-0.115479
-0.111816
-0.113892
-0.117004
-0.112244
-0.114746
-0.108704
-0.105835
-0.103027
-0.097168
-0.0943604
-0.0846558
-0.0759277
-0.0704346
-0.0637207
-0.0516357
-0.0366821
-0.0256348
-0.0101929
0.00402832
0.0249023
0.0487061
0.0726929
0.101318
0.120728
0.145508
0.160522
0.17218
0.188171
0.201233
0.209412
0.213745
0.215454
0.223083
0.224854
0.225769
0.21991
0.216797
0.213318
0.202515
0.199829
0.188599
0.185913
0.183167
0.171997
0.166626
0.156738
0.150879
0.142639
0.131958
0.125366
0.116943
0.110779
0.0997314
0.0866699
0.078186
0.072998
0.0673828
0.0516357
0.0426025
0.0344238
0.0196533
0.0109253
0.0065918
-0.00274658
-0.00909424
-0.0154419
-0.0220947
-0.0195313
-0.0212402
-0.0307617
-0.038208
-0.0435181
-0.0460815
-0.0446777
-0.0463257
-0.0431519
-0.0463867
-0.0414429
-0.0489502
-0.045166
-0.0457764
-0.0386963
-0.0404053
-0.0427856
-0.0442505
-0.0422974
-0.0411377
-0.0440674
-0.0456543
-0.0445557
-0.0474243
-0.0487061
-0.0462646
-0.0406494
-0.0390015
-0.0407715
-0.0411987
-0.0411987
-0.0401611
-0.039917
-0.0414429
-0.0427856
-0.0422974
-0.0457153
-0.0439453
-0.0407104
-0.0330811
-0.0270996
-0.0269165
-0.0250244
-0.0222778
-0.0166626
-0.00976563
-0.00445557
-0.00158691
-0.00854492
-0.00128174
-0.00219727
-0.00524902
0.000305176
-0.00604248
-0.00708008
-0.0129395
-0.0134888
-0.017334
-0.0250854
-0.0283813
-0.0290527
-0.0275269
-0.0321045
-0.0354614
-0.0328369
-0.0340576
-0.0392456
-0.0491943
-0.0551758
-0.0588989
-0.06604
-0.0661011
-0.0689697
-0.0722656
-0.0753784
-0.0740356
-0.0725098
-0.0721436
-0.0759888
-0.0872803
-0.0935669
-0.102112
-0.106873
-0.117249
-0.114075
-0.108582
-0.106018
-0.106323
-0.105591
-0.100952
-0.103516
-0.101929
-0.101746
-0.105652
-0.110657
-0.113892
-0.121521
-0.125366
-0.131226
-0.127563
-0.127441
-0.127014
-0.12915
-0.128845
-0.120911
-0.117065
-0.114624
-0.103882
-0.0894775
-0.0806885
-0.0748291
-0.0737305
-0.0730591
-0.0663452
-0.0689087
-0.0675049
-0.0669556
-0.0610962
-0.0517578
-0.0515137
-0.0427246
-0.0328369
-0.0251465
-0.0136108
-0.000183105
0.0171509
0.0308228
0.0522461
0.0760498
0.0986328
0.123596
0.144226
0.170471
0.189819
0.200928
0.211548
0.216675
0.225037
0.232178
0.242126
0.24469
0.248169
0.245422
0.243286
0.240112
0.234192
0.231201
0.22229
0.219482
0.207947
0.205017
0.190857
0.184204
0.172668
0.157654
0.149719
0.139099
0.127319
0.117371
0.103638
0.0921021
0.0865479
0.0783081
0.0845947
0.0726929
0.0691528
0.0606079
0.0552979
0.0425415
0.0301514
0.0152588
0.00244141
-0.00775146
-0.017334
-0.0224609
-0.0289307
-0.0310059
-0.0325928
-0.0332642
-0.0365601
-0.0395508
-0.0429688
-0.0452271
-0.0441284
-0.0447998
-0.0471191
-0.0465088
-0.0465088
-0.0458374
-0.0453491
-0.0414429
-0.0401001
-0.0387573
-0.0349731
-0.0335693
-0.0304565
-0.0258789
-0.0232544
-0.0252075
-0.0264282
-0.0231934
-0.0247803
-0.0326538
-0.0389404
-0.0493164
-0.0574951
-0.0606079
-0.0655518
-0.0728149
-0.0775757
-0.0841675
-0.086853
-0.086853
-0.0838013
-0.0824585
-0.0786743
-0.0775757
-0.0796509
-0.0811768
-0.0865479
-0.0894775
-0.0877686
-0.0875854
-0.0834351
-0.0889282
-0.0879517
-0.0914917
-0.0925903
-0.0952148
-0.0913696
-0.0991211
-0.103333
-0.101685
-0.0979004
-0.0974731
-0.0957642
-0.093811
-0.0985107
-0.0911865
-0.0911255
-0.0883789
-0.0881958
-0.0804443
-0.076355
-0.0792847
-0.0749512
-0.0775146
-0.0791626
-0.0820923
-0.0762939
-0.0776367
-0.0778198
-0.0786133
-0.0834961
-0.0839233
-0.0841064
-0.0848999
-0.0925293
-0.0899658
-0.0870972
-0.0858154
-0.0824585
-0.0811157
-0.0845337
-0.0823364
-0.0792236
-0.0787354
-0.0829468
-0.0830078
-0.0830688
-0.0742188
-0.0656738
-0.0599365
-0.0548096
-0.046814
-0.0437012
-0.0379639
-0.0397949
-0.0445557
-0.0483398
-0.0509033
-0.0595703
-0.0663452
-0.0678711
-0.071106
-0.0737305
-0.0755005
-0.0726929
-0.0779419
-0.0795288
-0.078186
-0.0792236
-0.0762329
-0.0814819
-0.0852661
-0.0775146
-0.0704956
-0.0580444
-0.0497437
-0.0390015
-0.0297852
-0.019104
-0.00543213
0.00195313
0.020752
0.0380249
0.055542
0.0731201
0.0968628
0.119629
0.142456
0.162292
0.180298
0.194092
0.212646
0.226501
0.230896
0.235046
0.22998
0.232178
0.230713
0.226868
0.222229
0.214844
0.202209
0.191528
0.182007
0.167786
0.157349
0.152039
0.148254
0.142273
0.137573
0.121277
0.114136
0.107422
0.0966187
0.0842896
0.0740967
0.0736694
0.0609741
0.0562744
0.046814
0.031189
0.0245361
0.0119019
0.00622559
0.00262451
-0.00708008
-0.00952148
-0.0126343
-0.0216064
-0.022522
-0.0283203
-0.027771
-0.0269775
-0.0371094
-0.0328979
-0.0369263
-0.036377
-0.0317383
-0.024292
-0.0193481
-0.020752
-0.0168457
-0.0183716
-0.0166626
-0.0137939
-0.0181885
-0.0200195
-0.017395
-0.0161743
-0.0144653
-0.0101929
-0.00598145
-0.0045166
-0.00860596
-0.0211182
-0.0327148
-0.0397339
-0.0452881
-0.0549316
-0.0585938
-0.0650024
-0.0736694
-0.0755005
-0.0829468
-0.0852661
-0.0911865
-0.0904541
-0.0901489
-0.088501
-0.0904541
-0.0887451
-0.086792
-0.0886841
-0.0891724
-0.0882568
-0.0894775
-0.0896606
-0.0881958
-0.0900269
-0.0883789
-0.0893555
-0.0859985
-0.0888672
-0.0880737
-0.0904541
-0.0941162
-0.0922241
-0.0886841
-0.0933838
-0.0880127
-0.088623
-0.0795288
-0.0814819
-0.0772705
-0.0758667
-0.0783691
-0.0742188
-0.0792236
-0.0817261
-0.0773926
-0.0769043
-0.0844727
-0.0869751
-0.0990601
-0.0959473
-0.104187
-0.102661
-0.102661
-0.0961304
-0.101257
-0.100647
-0.103943
-0.104187
-0.103577
-0.104797
-0.0940552
-0.0921631
-0.0953979
-0.0943604
-0.0890503
-0.0900269
-0.0925293
-0.0881958
-0.0807495
-0.0802612
-0.0789185
-0.0830688
-0.0759888
-0.0773926
-0.083252
-0.0793457
-0.0748901
-0.0705566
-0.0704346
-0.0667725
-0.0650635
-0.0639648
-0.0598755
-0.0543213
-0.0578613
-0.055542
-0.0544434
-0.0534668
-0.0465088
-0.0400391
-0.0372314
-0.0286865
-0.027771
-0.0281372
-0.0304565
-0.0308228
-0.0324707
-0.0411987
-0.0439453
-0.0472412
-0.0494995
-0.0460205
-0.0491333
-0.0499878
-0.050354
-0.0420532
-0.0366821
-0.0280151
-0.0186768
-0.00158691
0.00891113
0.0200806
0.0373535
0.0679932
0.0910034
0.115112
0.135803
0.155823
0.169922
0.184814
0.185486
0.188904
0.194702
0.193359
0.194458
0.187195
0.181274
0.174438
0.163147
0.14679
0.141174
0.126465
0.121399
0.108704
0.100464
0.0897827
0.0828247
0.0859985
0.0792236
0.0761719
0.0762939
0.0678711
0.0585327
0.0579834
0.0494995
0.0366211
0.0302124
0.026062
0.00952148
0.00506592
-0.0043335
-0.0114136
-0.0217285
-0.0269775
-0.0309448
-0.0337524
-0.0421143
-0.0455322
-0.0516357
-0.0535278
-0.052124
-0.050293
-0.0484009
-0.0522461
-0.0518188
-0.0482178
-0.048584
-0.0502319
-0.0535889
-0.0530396
-0.0491943
-0.0542603
-0.0478516
-0.0465698
-0.0401001
-0.0393677
-0.0411377
-0.0450439
-0.0440063
-0.0454102
-0.0477295
-0.0574951
-0.0646362
-0.0708008
-0.0748291
-0.0737305
-0.0703735
-0.0651245
-0.0655518
-0.0644531
-0.0602417
-0.0546265
-0.0534058
-0.0537109
-0.055542
-0.0595093
-0.0603638
-0.0653076
-0.0654907
-0.0679321
-0.0718384
-0.0725708
-0.0734253
-0.0712891
-0.0784912
-0.0743408
-0.0760498
-0.0817261
-0.0793457
-0.076355
-0.0786133
-0.0826416
-0.083374
-0.0754395
-0.0765991
-0.0741577
-0.0751343
-0.0675659
-0.0692749
-0.0690308
-0.0673828
-0.0618286
-0.0586548
-0.0558472
-0.057373
-0.0529175
-0.0485229
-0.043335
-0.0471802
-0.0447388
-0.0455933
-0.0491943
-0.043457
-0.0379639
-0.0291748
-0.0241089
-0.0186157
-0.0167236
-0.0220947
-0.024353
-0.0255127
-0.031189
-0.0344849
-0.0299683
-0.034668
-0.0349731
-0.0362549
-0.0379639
-0.0449829
-0.0430298
-0.0337524
-0.0249023
-0.0177612
-0.0162354
-0.0100098
-0.0153809
-0.0133667
-0.0112305
-0.012085
-0.0103149
-0.00970459
-0.00549316
-0.00469971
-0.0101318
-0.0109863
-0.0136719
-0.00793457
-0.00469971
-0.00195313
0.00292969
6.10352E-005
0.00445557
0.00585938
0.0106812
0.0113525
0.0134277
0.0159912
0.0151367
0.0195923
0.0222778
0.0328369
0.0463257
0.0584717
0.069397
0.0786133
0.0883789
0.104919
0.120911
0.137756
0.149353
0.162109
0.175903
0.184998
0.193909
0.202087
0.203491
0.20282
0.205811
0.205811
0.200684
0.189697
0.182434
0.171692
0.157959
0.149475
0.132446
0.12793
0.123901
0.116272
0.110229
0.0958862
0.0803833
0.065918
0.0521851
0.0455322
0.0344849
0.0189819
0.00341797
-0.0055542
-0.0153198
-0.0220337
-0.0279541
-0.0253296
-0.0303955
-0.0360107
-0.0321655
-0.0397949
-0.0354004
-0.0328369
-0.0332031
-0.0363159
-0.0353394
-0.0460205
-0.0443115
-0.0507202
-0.0578003
-0.0628052
-0.0601196
-0.0565186
-0.0563354
-0.0576782
-0.0643921
-0.0629272
-0.0614014
-0.0571899
-0.0549316
-0.0502319
-0.0504761
-0.0492554
-0.039917
-0.0430298
-0.046814
-0.0489502
-0.0519409
-0.0479736
-0.0504761
-0.0537109
-0.0530396
-0.0559692
-0.0605469
-0.0565796
-0.0569458
-0.055603
-0.0568848
-0.0610352
-0.0567017
-0.0534058
-0.0551758
-0.0577393
-0.0592041
-0.0613403
-0.0667114
-0.0675049
-0.0683594
-0.0715332
-0.0661621
-0.064209
-0.0639648
-0.0599365
-0.0563354
-0.0571899
-0.0571289
-0.0550537
-0.0567017
-0.0526123
-0.0518799
-0.0461426
-0.0443115
-0.0366211
-0.0345459
-0.0332642
-0.0240479
-0.0247803
-0.0231323
-0.0231323
-0.0238037
-0.027832
-0.0314331
-0.0303955
-0.0326538
-0.0362549
-0.0321655
-0.0339966
-0.0296021
-0.0286865
-0.0313721
-0.0365601
-0.0404053
-0.0421753
-0.0513306
-0.053833
-0.0532227
-0.0551147
-0.050354
-0.0499878
-0.0539551
-0.0491943
-0.0510254
-0.0447388
-0.0435181
-0.0438232
-0.0466919
-0.0497437
-0.0431519
-0.0513916
-0.046814
-0.0435791
-0.0449829
-0.0430298
-0.0394287
-0.0402832
-0.0409546
-0.0497437
-0.0537109
-0.0519409
-0.0532837
-0.0517578
-0.0574341
-0.0492554
-0.0419922
-0.0385132
-0.02948
-0.0286255
-0.0247803
-0.019043
-0.0142822
-0.00549316
0.000305176
0.0078125
0.0196533
0.0321045
0.0455933
0.0651855
0.0860596
0.0988159
0.118896
0.136047
0.14856
0.167297
0.176819
0.180908
0.191223
0.195557
0.198364
0.203247
0.203247
0.198181
0.197327
0.197327
0.193481
0.189697
0.187012
0.181458
0.175415
0.172974
0.164856
0.161194
0.149719
0.137878
0.130615
0.121643
0.122864
0.111023
0.105347
0.100159
0.09021
0.0802612
0.0686035
0.0594482
0.0518799
0.0459595
0.0460815
0.0415039
0.0375977
0.032959
0.0305176
0.0250244
0.012146
0.00598145
0.00671387
0.00762939
0.0125122
0.00756836
0.00427246
0.00292969
0.00787354
0.0100708
0.0137329
0.0158691
0.0161133
0.0178223
0.0117798
0.0149536
0.0151367
0.0127563
0.0119629
0.00408936
0.00360107
0.00671387
0.00616455
0.0067749
0.00299072
0.00787354
0.00506592
0.00335693
0.00402832
-0.00262451
0.000305176
-0.00366211
-0.00738525
-0.00543213
-0.0118408
-0.0194092
-0.0193481
-0.0199585
-0.0240479
-0.02771
-0.0320435
-0.0318604
-0.0397949
-0.0379639
-0.0410767
-0.0406494
-0.043457
-0.0457153
-0.0493774
-0.0575562
-0.0598755
-0.0579834
-0.0571289
-0.0588989
-0.0568848
-0.0570068
-0.0598755
-0.0602417
-0.0637207
-0.0628052
-0.0656738
-0.0686035
-0.0722656
-0.0780029
-0.083252
-0.0865479
-0.0861206
-0.0897217
-0.0917969
-0.0892944
-0.0963135
-0.0947876
-0.0910034
-0.0804443
-0.078064
-0.0756836
-0.076355
-0.0701294
-0.0673828
-0.0708618
-0.0731812
-0.074707
-0.0790405
-0.0796509
-0.0765991
-0.0759277
-0.0747681
-0.0710449
-0.0663452
-0.0598145
-0.0602417
-0.0604858
-0.0579224
-0.0518799
-0.0563354
-0.0546875
-0.0551147
-0.0581665
-0.0588379
-0.0632935
-0.06073
-0.0579834
-0.0535889
-0.0595093
-0.0623169
-0.059021
-0.0620728
-0.0606079
-0.0598145
-0.0559082
-0.0544434
-0.0584717
-0.0565186
-0.0567627
-0.0537109
-0.0432129
-0.0454102
-0.0427246
-0.0371094
-0.0251465
-0.0142212
0.00665283
0.0126343
0.0276489
0.0403442
0.0615234
0.0822144
0.100464
0.108276
0.132935
0.152405
0.16864
0.186157
0.19519
0.203003
0.214844
0.223083
0.22699
0.228943
0.230225
0.22644
0.226257
0.218445
0.210388
0.200989
0.195862
0.187988
0.182739
0.174561
0.175232
0.17334
0.166687
0.164917
0.152405
0.142517
0.137024
0.130371
0.125183
0.116882
0.107422
0.0966797
0.0893555
0.0814209
0.0706787
0.0678101
0.0650024
0.0614624
0.0531616
0.0490723
0.0506592
0.0494385
0.0479736
0.0471191
0.0424194
0.0396118
0.0393066
0.036438
0.038147
0.0343018
0.0274658
0.0241089
0.0233154
0.0189819
0.0203247
0.0149536
0.0158691
0.0178833
0.0233765
0.0256958
0.0248413
0.0264893
0.0272217
0.0264893
0.0321655
0.0288086
0.0297241
0.0299683
0.0224609
0.0161743
0.00500488
0.00128174
-0.00549316
-0.0111084
-0.0166626
-0.0214233
-0.0244141
-0.0282593
-0.0380249
-0.0377197
-0.0410767
-0.0531006
-0.0584106
-0.0614014
-0.0693359
-0.0674438
-0.078125
-0.0811768
-0.083313
-0.0877686
-0.0764771
-0.0707397
-0.0701294
-0.0689697
-0.0681152
-0.0723267
-0.0733643
-0.0759888
-0.0773926
-0.0760498
-0.0775146
-0.071167
-0.074585
-0.0706787
-0.0714722
-0.0787964
-0.0771484
-0.0741577
-0.0705566
-0.0720825
-0.0673828
-0.0688477
-0.0665283
-0.0719604
-0.0736694
-0.0838623
-0.0922241
-0.0907593
-0.0912476
-0.0904541
-0.0915527
-0.0927124
-0.0962524
-0.110046
-0.109314
-0.110962
-0.110535
-0.100586
-0.100891
-0.0960693
-0.0935059
-0.09198
-0.0908813
-0.0820313
-0.0840454
-0.0806274
-0.0795898
-0.078186
-0.0786133
-0.0742188
-0.074707
-0.0751343
-0.0703125
-0.0802612
-0.0762329
-0.0722656
-0.0742798
-0.0723267
-0.0718994
-0.0706177
-0.0628052
-0.062439
-0.0605469
-0.0651245
-0.0629272
-0.0582275
-0.0501709
-0.0465088
-0.0422363
-0.0332031
-0.0253296
-0.0194702
-0.00946045
0.00469971
0.0151978
0.0285034
0.0418091
0.0560303
0.0779419
0.0963745
0.120544
0.13623
0.15686
0.176086
0.193726
0.210693
0.225037
0.232056
0.235535
0.233826
0.235168
0.230164
0.224548
0.224487
0.225586
0.220825
0.21405
0.214233
0.20752
0.196472
0.195557
0.194702
0.186401
0.178833
0.177307
0.169312
0.16333
0.157776
0.152649
0.145508
0.138916
0.126892
0.117249
0.106079
0.100952
0.0890503
0.078186
0.062561
0.0506592
0.0458984
0.0394897
0.036377
0.0241699
0.0130005
0.00915527
0.0032959
-0.00793457
-0.0110474
-0.0137329
-0.0175781
-0.0161743
-0.0161133
-0.0113525
-0.0118408
-0.0103149
-0.0088501
-0.0151978
-0.0189819
-0.0270386
-0.0274048
-0.0305786
-0.0263062
-0.0285645
-0.0256958
-0.0241699
-0.0224609
-0.0234375
-0.0233765
-0.0227661
-0.0212402
-0.0264893
-0.0315552
-0.034729
-0.031189
-0.0355835
-0.0363159
-0.0383911
-0.0509033
-0.0557861
-0.0570068
-0.0610352
-0.065918
-0.0645752
-0.0612793
-0.0580444
-0.0554199
-0.0504761
-0.0482178
-0.0444946
-0.0455933
-0.0455933
-0.0458984
-0.0532837
-0.0560913
-0.0586548
-0.0553589
-0.0574341
-0.0521851
-0.0617676
-0.0633545
-0.0629272
-0.0684204
-0.0690308
-0.0759277
-0.081665
-0.0886841
-0.0901489
-0.0881348
-0.085144
-0.086792
-0.0841064
-0.0830688
-0.0765991
-0.0735474
-0.0719604
-0.0775146
-0.0756226
-0.0738525
-0.0665283
-0.083252
-0.0779419
-0.074585
-0.0728149
-0.0688477
-0.0668945
-0.062439
-0.0661621
-0.0712891
-0.0661621
-0.0654907
-0.0619507
-0.0657349
-0.0645752
-0.0629272
-0.0656738
-0.0667114
-0.0697632
-0.0755615
-0.0769043
-0.0805054
-0.0820313
-0.0840454
-0.0866089
-0.0835571
-0.0877075
-0.0888062
-0.088501
-0.0878296
-0.0877686
-0.0910645
-0.0930786
-0.0869751
-0.0870361
-0.0822754
-0.0800171
-0.0741577
-0.0689087
-0.065979
-0.0529785
-0.0397339
-0.0238037
-0.00805664
0.0194092
0.0307007
0.0467529
0.0653687
0.0773315
0.102783
0.124817
0.145325
0.158875
0.168518
0.180481
0.18689
0.191956
0.197937
0.202148
0.205811
0.205627
0.201233
0.2005
0.199951
0.198059
0.186707
0.180054
0.175354
0.170471
0.170227
0.156128
0.153259
0.143311
0.140991
0.136047
0.124146
0.112122
0.104858
0.0922852
0.0824585
0.0703125
0.0617676
0.046814
0.0336914
0.0205688
0.0117188
-0.00152588
-0.00933838
-0.0118408
-0.0143433
-0.0159912
-0.0133057
-0.0159302
-0.0119019
-0.0110474
-0.0100708
-0.00744629
-0.00354004
-0.00531006
-0.000366211
-0.00408936
-0.00616455
-0.00750732
-0.00866699
-0.00494385
-0.00610352
-0.00280762
-0.00305176
-0.00512695
-0.00146484
-0.0111694
-0.0123291
-0.0158081
-0.0157471
-0.0210571
-0.0249634
-0.0219727
-0.0273438
-0.0265503
-0.0316162
-0.0328979
-0.0352783
-0.0380859
-0.0420532
-0.0429688
-0.0455933
-0.0473022
-0.0479126
-0.0457153
-0.0540771
-0.0552979
-0.0570679
-0.0576172
-0.0604858
-0.0648804
-0.0664063
-0.0739136
-0.0720215
-0.0732422
-0.0709229
-0.0736694
-0.0722046
-0.0692139
-0.065979
-0.06427
-0.0591431
-0.053772
-0.0505371
-0.0532227
-0.0578613
-0.0605469
-0.0612183
-0.0596313
-0.0641479
-0.0634155
-0.0603638
-0.0625
-0.0569458
-0.0599976
-0.0537109
-0.0546265
-0.0640259
-0.0640869
-0.0648804
-0.0684204
-0.0626831
-0.057373
-0.0532227
-0.0500488
-0.0566406
-0.0559082
-0.0548096
-0.053772
-0.0521851
-0.0531006
-0.0522461
-0.0473633
-0.0461426
-0.0447388
-0.0413208
-0.0391235
-0.0353394
-0.0380249
-0.0375366
-0.0444336
-0.0418091
-0.0411377
-0.0387573
-0.0368652
-0.0385132
-0.0379639
-0.0428467
-0.0466309
-0.0487061
-0.0460205
-0.0404053
-0.0386963
-0.0302734
-0.0183716
-0.0101929
-0.000610352
0.0163574
0.026062
0.0374756
0.0505981
0.0710449
0.0875244
0.108826
0.122375
0.139832
0.161987
0.184998
0.201538
0.21814
0.225769
0.236328
0.24707
0.249939
0.257324
0.255676
0.249268
0.246643
0.246948
0.247742
0.24231
0.229736
0.226929
0.218567
0.213074
0.20929
0.199219
0.194397
0.182556
0.173645
0.166809
0.15918
0.151123
0.13739
0.135376
0.123169
0.109863
0.0988159
0.0820313
0.0688477
0.0627441
0.0496216
0.0386963
0.0288086
0.0161133
0.0098877
6.10352E-005
-0.00323486
-0.00463867
-0.00775146
-0.00854492
-0.00805664
-0.00787354
-0.00592041
-0.00915527
-0.00891113
-0.00695801
-0.00726318
-0.0113525
-0.0111694
-0.0172729
-0.0184937
-0.0164795
-0.0198364
-0.0183105
-0.0140991
-0.00909424
-0.0144653
-0.00738525
-0.0148926
-0.0137939
-0.0146484
-0.0100708
-0.0100708
-0.00457764
-0.00927734
-0.00421143
-0.00146484
-0.0098877
-0.00616455
-0.00500488
-0.00396729
-0.000915527
-0.00463867
-0.0105591
-0.0140991
-0.0200195
-0.0217285
-0.0278931
-0.0254517
-0.0283203
-0.0352783
-0.0462646
-0.0535278
-0.0606079
-0.0605469
-0.0587769
-0.0539551
-0.0493774
-0.0452881
-0.0495605
-0.046936
-0.0459595
-0.0441895
-0.0458374
-0.039856
-0.0360107
-0.0307617
-0.0327759
-0.0289917
-0.0254517
-0.0317993
-0.03125
-0.0401001
-0.0403442
-0.0484009
-0.0522461
-0.0616455
-0.0651855
-0.0646973
-0.0664673
-0.071228
-0.0766602
-0.0806274
-0.0780029
-0.0731812
-0.0736694
-0.0693359
-0.0710449
-0.0674438
-0.0755615
-0.0687256
-0.0675659
-0.0736694
-0.0737305
-0.0755615
-0.0802002
-0.0782471
-0.0805664
-0.0787354
-0.0804443
-0.0817871
-0.0780029
-0.0795288
-0.0836182
-0.0836792
-0.0812988
-0.0869751
-0.0848389
-0.0821533
-0.0864258
-0.0914917
-0.10199
-0.0997314
-0.0997314
-0.101074
-0.101013
-0.0975952
-0.0964355
-0.0873413
-0.0820313
-0.0755005
-0.0623169
-0.0462646
-0.0324097
-0.00762939
0.0202026
0.0443115
0.078186
0.115356
0.140808
0.169617
0.188965
0.20874
0.226257
0.241516
0.248413
0.254456
0.259094
0.263672
0.26416
0.259705
0.259766
0.259216
0.257202
0.248474
0.247559
0.243469
0.239685
0.23175
0.220215
0.21167
0.20575
0.201416
0.196594
0.183411
0.177124
0.175232
0.172302
0.163757
0.158386
0.156372
0.156616
0.149719
0.141418
0.125
0.117493
0.106384
0.0928955
0.0877075
0.0790405
0.0734253
0.0633545
0.0553589
0.043396
0.0298462
0.026001
0.0153809
0.0134888
0.00299072
0.00201416
0.000244141
-0.0012207
0.000854492
-0.00488281
-0.0100708
-0.0163574
-0.0203857
-0.0319214
-0.0372925
-0.0371094
-0.0375366
-0.0345459
-0.0321045
-0.0271606
-0.0319214
-0.0255127
-0.0250244
-0.0259399
-0.0255127
-0.022522
-0.0176392
-0.0119019
-0.0101318
-0.00585938
-0.00469971
-0.019165
-0.0206299
-0.0222778
-0.0257568
-0.0299072
-0.0397339
-0.0365601
-0.0441284
-0.0476685
-0.0482788
-0.053833
-0.0556641
-0.0563354
-0.0603638
-0.0653687
-0.0670166
-0.0654907
-0.062561
-0.0618286
-0.0618896
-0.0673218
-0.0698853
-0.072876
-0.0726929
-0.0760498
-0.0764771
-0.074646
-0.078186
-0.0794067
-0.086853
-0.0791626
-0.0759277
-0.0724487
-0.0709839
-0.0706177
-0.0742798
-0.0745239
-0.0759277
-0.0792236
-0.0870361
-0.0919189
-0.0941162
-0.0900269
-0.085022
-0.0914307
-0.09375
-0.0946045
-0.0908203
-0.0875854
-0.0880737
-0.0906372
-0.0857544
-0.0750122
-0.0656128
-0.0651245
-0.0631714
-0.0628662
-0.0635986
-0.0654297
-0.0664063
-0.0635376
-0.0553589
-0.0610962
-0.0618286
-0.0739746
-0.0756836
-0.0784912
-0.0817261
-0.0852661
-0.090332
-0.0892944
-0.0914917
-0.0933228
-0.0995483
-0.100342
-0.104492
-0.105225
-0.112671
-0.110962
-0.111755
-0.113892
-0.105835
-0.102295
-0.0976563
-0.0962524
-0.0939331
-0.0822754
-0.0761108
-0.06427
-0.0567627
-0.0484619
-0.0361328
-0.0247192
-0.00775146
0.0167236
0.0383911
0.0500488
0.0682373
0.0907593
0.107666
0.121094
0.141724
0.153137
0.166016
0.180725
0.183289
0.187439
0.193481
0.196289
0.201233
0.202087
0.200806
0.2005
0.194092
0.197998
0.188782
0.183411
0.170044
0.164124
0.156982
0.156494
0.15979
0.158691
0.15686
0.153625
0.152222
0.14978
0.145447
0.142883
0.135742
0.136353
0.131042
0.125244
0.11908
0.108276
0.0963135
0.0886841
0.0739746
0.0666504
0.0665283
0.0523682
0.0421143
0.0314941
0.0248413
0.0203857
0.0153809
0.0109863
0.00646973
0.00567627
-0.00201416
-0.00592041
-0.00994873
-0.0113525
-0.0158691
-0.0118408
-0.0100708
-0.0167847
-0.019104
-0.0163574
-0.0146484
-0.0135498
-0.0134888
-0.013855
-0.0198364
-0.0216675
-0.0209961
-0.0197754
-0.0183105
-0.0228271
-0.0209961
-0.0196533
-0.0172729
-0.0148315
-0.0134888
-0.0176392
-0.0299683
-0.03302
-0.0355225
-0.0408325
-0.041626
-0.0465698
-0.0517578
-0.0517578
-0.055603
-0.0531006
-0.055481
-0.0598145
-0.05896
-0.0606689
-0.0567017
-0.0581055
-0.0564575
-0.0554199
-0.0580444
-0.0612793
-0.0623169
-0.0662231
-0.0689697
-0.0704346
-0.0722656
-0.0782471
-0.0853882
-0.0841675
-0.0825806
-0.0831299
-0.0856323
-0.0859375
-0.0870972
-0.0912476
-0.103638
-0.0975952
-0.0963135
-0.090332
-0.0911255
-0.090332
-0.0878296
-0.0895386
-0.0974731
-0.0943604
-0.09729
-0.0976563
-0.103149
-0.101563
-0.10083
-0.0980225
-0.10083
-0.0966797
-0.102417
-0.107178
-0.113464
-0.116394
-0.116821
-0.120911
-0.120239
-0.125244
-0.123352
-0.122681
-0.124634
-0.122314
-0.126221
-0.119934
-0.116882
-0.111023
-0.113708
-0.10907
-0.110046
-0.112976
-0.113403
-0.112244
-0.115051
-0.109863
-0.109314
-0.107239
-0.10321
-0.101379
-0.0991821
-0.101746
-0.102661
-0.105103
-0.104919
-0.101807
-0.10907
-0.110107
-0.102478
-0.0945435
-0.0768433
-0.0644531
-0.0545654
-0.0429077
-0.0321045
-0.0195923
-0.00665283
0.00622559
0.0185547
0.0274658
0.0452881
0.0614624
0.0758057
0.0997925
0.118103
0.14563
0.166138
0.181274
0.194641
0.205505
0.209534
0.22583
0.230591
0.235535
0.241821
0.242249
0.241394
0.240234
0.236084
0.228088
0.217834
0.207031
0.196899
0.180054
0.169373
0.156677
0.153442
0.148376
0.143311
0.142151
0.140381
0.127991
0.123596
0.121765
0.11731
0.104797
0.102417
0.0964355
0.0916748
0.0831909
0.0769653
0.0671997
0.062561
0.0541992
0.0500488
0.038147
0.0317383
0.0275269
0.0178223
0.0145874
0.00665283
0.0032959
0.00726318
0.00384521
0.00335693
0.00305176
0.00457764
0.00811768
0.0098877
0.0103149
0.0106812
0.0113525
0.00921631
0.0116577
0.00946045
0.00384521
0.00177002
-0.000549316
-0.00396729
-0.00354004
-0.00823975
-0.010437
-0.017395
-0.0147095
-0.017395
-0.015686
-0.0184326
-0.0174561
-0.0146484
-0.0195313
-0.0234375
-0.0327148
-0.0437622
-0.0441284
-0.0505371
-0.0566406
-0.0610352
-0.0680542
-0.0734253
-0.0738525
-0.088623
-0.0986328
-0.102539
-0.102539
-0.0950317
-0.0932007
-0.0978394
-0.0949707
-0.0988159
-0.098877
-0.0970459
-0.0968018
-0.0952148
-0.0946655
-0.09552
-0.0958252
-0.0960083
-0.0940552
-0.10144
-0.103943
-0.106628
-0.112061
-0.114258
-0.117126
-0.116089
-0.116272
-0.112305
-0.108704
-0.108643
-0.108765
-0.109375
-0.114807
-0.114746
-0.115723
-0.117981
-0.121765
-0.119202
-0.12616
-0.129639
-0.131714
-0.11853
-0.116028
-0.111694
-0.108765
-0.102966
-0.104797
-0.102112
-0.103027
-0.0997925
-0.0969238
-0.0961304
-0.0926514
-0.0865479
-0.0848389
-0.0928345
-0.09198
-0.0852051
-0.0821533
-0.0793457
-0.0803833
-0.0771484
-0.0749512
-0.0762329
-0.0779419
-0.079895
-0.0874023
-0.0820313
-0.0829468
-0.085144
-0.0839844
-0.0834351
-0.0822144
-0.0783691
-0.0749512
-0.0656738
-0.0621948
-0.0599976
-0.0585327
-0.0550537
-0.046875
-0.0499878
-0.0501709
-0.0438843
-0.0474854
-0.0421753
-0.0352173
-0.0305786
-0.0258789
-0.0101318
0.00360107
0.0257568
0.036438
0.0533447
0.0715332
0.0914917
0.107788
0.125488
0.140808
0.158997
0.171265
0.181702
0.196655
0.20636
0.20752
0.208008
0.210022
0.206909
0.202393
0.19458
0.190857
0.18811
0.182373
0.171082
0.164612
0.160217
0.158264
0.151367
0.14978
0.14386
0.147217
0.13855
0.129395
0.121887
0.11377
0.102966
0.0941162
0.0869751
0.0803833
0.0700073
0.0604858
0.053833
0.0560303
0.0534058
0.0466919
0.0444336
0.0425415
0.0400391
0.0385742
0.0322266
0.0308228
0.0343628
0.0366821
0.0343018
0.0354004
0.0299683
0.0245972
0.0177002
0.0142212
0.00305176
-0.00262451
-0.00653076
0.000854492
0.00671387
0.00982666
0.0101318
0.00836182
0.0180054
0.0198975
0.0227051
0.0238647
0.0231934
0.0263672
0.0292358
0.0326538
0.0328369
0.0332642
0.0299072
0.027832
0.0280762
0.0209351
0.0168457
0.00970459
0.00384521
-0.00250244
-0.0067749
-0.00982666
-0.0185547
-0.0231323
-0.0197144
-0.0259399
-0.0324707
-0.0337524
-0.0402832
-0.0410156
-0.0471802
-0.0517578
-0.0580444
-0.0688477
-0.0690918
-0.0663452
-0.0720825
-0.0759277
-0.0846558
-0.0888062
-0.0961914
-0.100098
-0.104187
-0.104248
-0.10791
-0.114075
-0.111633
-0.112305
-0.112366
-0.112122
-0.112061
-0.117798
-0.11969
-0.113464
-0.119019
-0.118958
-0.123352
-0.120972
-0.12207
-0.122742
-0.126465
-0.126648
-0.125488
-0.122925
-0.116211
-0.111023
-0.106995
-0.103455
-0.0988159
-0.0995483
-0.0935669
-0.0891724
-0.0855713
-0.0823364
-0.0751343
-0.0758667
-0.074585
-0.0714722
-0.0778198
-0.076355
-0.0753174
-0.0753174
-0.071228
-0.0691528
-0.0784302
-0.0720215
-0.0757446
-0.0743408
-0.067749
-0.0715332
-0.0702515
-0.0708008
-0.0732422
-0.0740356
-0.0788574
-0.0780029
-0.0786743
-0.0733643
-0.0767212
-0.0819702
-0.0860596
-0.0886841
-0.0925903
-0.0946655
-0.101257
-0.0996704
-0.0983276
-0.0993652
-0.0948486
-0.0949097
-0.0914307
-0.083252
-0.0806885
-0.0701904
-0.0632324
-0.053772
-0.0422974
-0.0339355
-0.0266724
-0.0172119
-0.000305176
0.0134888
0.0249023
0.039856
0.0564575
0.0748291
0.0993652
0.119324
0.138306
0.162231
0.181152
0.191101
0.2052
0.213379
0.224182
0.230286
0.236694
0.245544
0.250549
0.257507
0.251465
0.237976
0.23877
0.235413
0.229492
0.222656
0.218994
0.211304
0.19635
0.187805
0.182068
0.172974
0.164001
0.159912
0.149536
0.141907
0.133545
0.132568
0.127686
0.114807
0.106934
0.0927734
0.0791016
0.0717163
0.0530396
0.0487061
0.0455322
0.0437012
0.0426025
0.0365601
0.0289307
0.0209351
0.0161743
0.00744629
-0.00152588
-0.00665283
-0.015625
-0.0221558
-0.0280762
-0.0291748
-0.0325317
-0.0328369
-0.0331421
-0.0357666
-0.041626
-0.0405884
-0.0334473
-0.031311
-0.0272217
-0.0292969
-0.0289307
-0.027832
-0.0197754
-0.0142212
-0.0178223
-0.0175171
-0.0212402
-0.017395
-0.0114136
-0.0154419
-0.0144043
-0.0183105
-0.0213623
-0.0267944
-0.0361328
-0.0349121
-0.0412598
-0.0462646
-0.0574341
-0.06073
-0.0580444
-0.0564575
-0.0552979
-0.0551758
-0.0550537
-0.05896
-0.0577393
-0.0638428
-0.0615234
-0.0588379
-0.0598145
-0.0614624
-0.0687256
-0.069458
-0.0684814
-0.0687866
-0.06604
-0.0709839
-0.0780029
-0.0808716
-0.079895
-0.0808716
-0.0827637
-0.0836792
-0.0870972
-0.0858765
-0.0859375
-0.0895996
-0.0986938
-0.0987549
-0.0993652
-0.100525
-0.10022
-0.0963135
-0.1026
-0.103455
-0.104553
-0.114136
-0.115479
-0.108704
-0.10553
-0.103088
-0.0979614
-0.0936279
-0.0931396
-0.0834961
-0.0823364
-0.0853271
-0.0852051
-0.0840454
-0.0854492
-0.079895
-0.0853882
-0.0861816
-0.0875244
-0.0936279
-0.0944824
-0.093811
-0.0991211
-0.0934448
-0.09729
-0.098999
-0.103333
-0.103943
-0.104126
-0.10907
-0.108704
-0.112976
-0.105469
-0.106934
-0.111084
-0.115723
-0.119568
-0.117493
-0.119751
-0.117065
-0.123474
-0.123535
-0.116821
-0.110229
-0.110291
-0.109192
-0.10675
-0.101318
-0.0935669
-0.0952759
-0.0890503
-0.0825806
-0.0800781
-0.0809937
-0.0777588
-0.0758667
-0.0759277
-0.0709229
-0.0708008
-0.0686035
-0.0650635
-0.0581055
-0.0576172
-0.0653076
-0.0548706
-0.0403442
-0.03479
-0.022522
-0.00476074
0.00445557
0.0200806
0.029541
0.0475464
0.0684204
0.0878906
0.0999756
0.119385
0.139832
0.158813
0.17981
0.195801
0.203186
0.214661
0.229492
0.236206
0.243652
0.248596
0.249573
0.253845
0.257874
0.25769
0.250244
0.239502
0.230042
0.215271
0.206482
0.205994
0.203186
0.196472
0.186768
0.176941
0.172424
0.164246
0.159546
0.149536
0.136841
0.13208
0.120483
0.112061
0.103271
0.090332
0.0769043
0.0664673
0.055603
0.0477905
0.0418091
0.0344238
0.0258179
0.0231934
0.0162354
0.0122681
0.0131836
0.0114746
0.00622559
0.0010376
-0.00427246
-0.0144043
-0.0222168
-0.0250854
-0.02771
-0.0296631
-0.0357666
-0.0410156
-0.0428467
-0.0481567
-0.0493774
-0.0513306
-0.0509644
-0.0512695
-0.052063
-0.0501709
-0.050293
-0.0455322
-0.041626
-0.0335693
-0.0355225
-0.0338135
-0.0315552
-0.0342407
-0.0300293
-0.0288086
-0.022644
-0.0203247
-0.0166016
-0.0088501
-0.0128174
-0.0180664
-0.0238647
-0.0231934
-0.0292358
-0.0373535
-0.043457
-0.0525513
-0.0630493
-0.0691528
-0.0814209
-0.0849609
-0.0924683
-0.0982666
-0.105774
-0.111511
-0.120544
-0.117371
-0.115784
-0.115295
-0.117859
-0.117859
-0.119751
-0.116577
-0.116028
-0.116821
-0.119568
-0.119568
-0.112122
-0.104675
-0.111877
-0.118225
-0.121887
-0.121521
-0.122498
-0.123169
-0.126953
-0.129578
-0.118652
-0.11853
-0.113953
-0.108582
-0.106384
-0.103821
-0.104187
-0.10144
-0.0976563
-0.0941772
-0.0888062
-0.0784912
-0.0690308
-0.0678101
-0.0650024
-0.0726318
-0.0725708
-0.0700684
-0.0786133
-0.0748901
-0.0740967
-0.0775757
-0.0797119
-0.0834351
-0.086731
-0.0866089
-0.085083
-0.083313
-0.0857544
-0.0794067
-0.0741577
-0.0682983
-0.0698242
-0.0652466
-0.0619507
-0.0612183
-0.0593262
-0.0577393
-0.0516968
-0.0545654
-0.0551758
-0.0576172
-0.055542
-0.0574341
-0.0527344
-0.0544434
-0.0523071
-0.0480347
-0.0454712
-0.0449829
-0.0456543
-0.0473633
-0.0454712
-0.0521851
-0.0564575
-0.0712891
-0.0786133
-0.0716553
-0.0744629
-0.0651855
-0.0548096
-0.0462646
-0.0383911
-0.0289307
-0.0249634
-0.012146
-0.00598145
0.0101318
0.0327148
0.0412598
0.0566406
0.0730591
0.0853271
0.0960083
0.1073
0.12738
0.14209
0.158081
0.173889
0.191406
0.201172
0.211121
0.219055
0.223267
0.227844
0.230042
0.225098
0.222961
0.21521
0.213013
0.200684
0.191101
0.18634
0.183838
0.181885
0.172607
0.160583
0.155457
0.151489
0.148804
0.145325
0.140747
0.134827
0.119995
0.117615
0.107239
0.0903931
0.0750122
0.060791
0.0440063
0.0333252
0.0189819
0.00463867
-0.00469971
-0.00927734
-0.0115356
-0.0162964
-0.0186157
-0.0164185
-0.0180664
-0.0250244
-0.0283203
-0.036499
-0.0373535
-0.0388184
-0.0385742
-0.0510864
-0.053894
-0.0568237
-0.0614624
-0.0629883
-0.0596924
-0.0623169
-0.0633545
-0.0643311
-0.0668945
-0.0688477
-0.0709229
-0.0725708
-0.0760498
-0.072937
-0.072937
-0.0722046
-0.0709229
-0.0655518
-0.0667725
-0.0650635
-0.0678711
-0.0675659
-0.0658569
-0.06604
-0.0652466
-0.0632324
-0.0656738
-0.0663452
-0.0700684
-0.0741577
-0.0731201
-0.0789185
-0.0779419
-0.078064
-0.0794067
-0.0761719
-0.0788574
-0.0814209
-0.0824585
-0.0825195
-0.081604
-0.0770264
-0.0699463
-0.0665283
-0.0643311
-0.0634766
-0.0653076
-0.0658569
-0.0689697
-0.0778809
-0.0787964
-0.0839844
-0.0910645
-0.0860596
-0.101074
-0.0974121
-0.0982666
-0.0952759
-0.0909424
-0.0906372
-0.083374
-0.079834
-0.0790405
-0.0739136
-0.0678101
-0.0673218
-0.0612183
-0.0563354
-0.0484009
-0.0463257
-0.0366821
-0.0390625
-0.0423584
-0.0430908
-0.0507202
-0.0515137
-0.0554199
-0.0571899
-0.055542
-0.0550537
-0.0524292
-0.0539551
-0.0483398
-0.0458374
-0.0426025
-0.0362549
-0.0317383
-0.0233765
-0.0209961
-0.0149536
-0.0127563
-0.00897217
-0.00427246
-0.000427246
0.00341797
0.0020752
0.0032959
0.00146484
0.00909424
0.0159912
0.0136108
0.0106201
0.00909424
0.0100098
0.0148315
0.012207
0.0140381
0.012085
0.0133667
0.0128174
0.00616455
0.0111084
0.00726318
0.00305176
0.0020752
0.00811768
0.0132446
0.0181885
0.0297241
0.0317383
0.0383911
0.0454712
0.0585938
0.078064
0.0889282
0.0958862
0.107239
0.12439
0.139648
0.1521
0.15979
0.177063
0.182861
0.188843
0.195557
0.191284
0.190613
0.186462
0.180115
0.174072
0.161682
0.151733
0.149658
0.143616
0.138062
0.13623
0.134644
0.119446
0.111694
0.113953
0.118164
0.117004
0.115234
0.111694
0.105591
0.100586
0.0912476
0.0810547
0.0708618
0.0645142
0.0502319
0.0473633
0.0360107
0.0305786
0.026001
0.0234375
0.0114136
0.00634766
0.00146484
-0.00128174
-0.0088501
-0.0162964
-0.0187378
-0.0214844
-0.022644
-0.0234375
-0.0234375
-0.0302734
-0.0251465
-0.0301514
-0.0321045
-0.0301514
-0.0275879
-0.0274048
-0.0203857
-0.013855
-0.00933838
-0.00909424
-0.00897217
-0.0182495
-0.0234375
-0.0238647
-0.0281372
-0.0307617
-0.0289917
-0.0264282
-0.0269165
-0.0283203
-0.0314331
-0.0327148
-0.0373535
-0.0355835
-0.0286865
-0.0193481
-0.0211792
-0.0238037
-0.0195923
-0.024292
-0.0203857
-0.0186768
-0.0189819
-0.0180054
-0.0177612
-0.0194092
-0.0192261
-0.0117188
-0.0203857
-0.0137939
-0.0144653
-0.0188599
-0.0259399
-0.0316772
-0.0330811
-0.034729
-0.0326538
-0.0341187
-0.0373535
-0.0402832
-0.0476685
-0.0491333
-0.0496826
-0.0532837
-0.0511475
-0.053894
-0.0496826
-0.0536499
-0.0531616
-0.0537109
-0.0501099
-0.0493164
-0.0490112
-0.0480347
-0.0476685
-0.050354
-0.0508423
-0.0519409
-0.0495605
-0.048584
-0.0492554
-0.0505981
-0.0494995
-0.0422974
-0.0421143
-0.0438843
-0.0387573
-0.0299072
-0.024231
-0.0229492
-0.0192871
-0.013916
-0.0098877
-0.00854492
-0.012207
-0.0109863
-0.0161743
-0.0149536
-0.0202026
-0.0222778
-0.0316162
-0.0377808
-0.0430298
-0.0383301
-0.0415039
-0.039978
-0.038147
-0.0418091
-0.0385132
-0.0376587
-0.0345459
-0.0288696
-0.0298462
-0.0183716
-0.0153198
-0.0158691
-0.0158081
-0.0157471
-0.00946045
-0.00549316
-0.00561523
0.00213623
0.00610352
0.012085
0.00830078
0.0130005
0.015625
0.020874
0.0279541
0.0391846
0.0513306
0.0606689
0.0743408
0.0852051
0.0962524
0.107544
0.11792
0.134644
0.150574
0.156128
0.167114
0.169189
0.173828
0.167908
0.164124
0.163391
0.163391
0.162292
0.160767
0.151733
0.146423
0.14563
0.145691
0.143616
0.139526
0.134827
0.128662
0.126343
0.120056
0.119202
0.110229
0.0974121
0.0880737
0.081604
0.0750732
0.0610352
0.0534058
0.0407104
0.0299683
0.0197754
0.0135498
0.0078125
-0.00585938
-0.0144043
-0.0166016
-0.020752
-0.0229492
-0.0253296
-0.0256348
-0.0306396
-0.0305786
-0.0252686
-0.0264893
-0.0309448
-0.0350342
-0.0389404
-0.0473022
-0.0535889
-0.0533447
-0.0543213
-0.0543823
-0.0528564
-0.0523071
-0.0528564
-0.0472412
-0.0448608
-0.0405884
-0.0405273
-0.0447998
-0.046875
-0.0425415
-0.0430908
-0.0394287
-0.0401611
-0.038147
-0.0386963
-0.0354614
-0.0294189
-0.0220947
-0.0251465
-0.0292969
-0.0321655
-0.0336304
-0.0407104
-0.0390015
-0.0394287
-0.0377808
-0.0396118
-0.0379028
-0.0384521
-0.0357666
-0.0372314
-0.0380249
-0.0427246
-0.0426025
-0.0415039
-0.0514526
-0.0466309
-0.0490723
-0.0494385
-0.0474243
-0.0421753
-0.0390625
-0.0360718
-0.0407715
-0.0454102
-0.0499268
-0.0507202
-0.0545654
-0.0546265
-0.0621338
-0.0493164
-0.0466919
-0.0374756
-0.0379028
-0.034729
-0.0249634
-0.0155029
-0.00927734
-0.00897217
-0.00848389
-0.00927734
-0.00927734
-0.0166016
-0.0133057
-0.015686
-0.0153198
-0.0161743
-0.0202026
-0.0148315
-0.00958252
-0.00744629
-0.00549316
-0.0101318
-0.00140381
-0.00213623
-0.00177002
-0.00305176
-0.0055542
-0.00805664
-0.00830078
-0.0148315
-0.00762939
-0.00335693
-0.00549316
-0.00292969
-0.00500488
0.00140381
-0.00305176
-0.00170898
-0.0108643
-0.00823975
-0.0065918
-0.0117798
-0.0106201
-0.0118408
-0.0132446
-0.0198975
-0.0238647
-0.0231934
-0.0215454
-0.0233154
-0.0238037
-0.02948
-0.0323486
-0.0385742
-0.0341187
-0.0378418
-0.0343628
-0.0287476
-0.0287476
-0.0271606
-0.019104
-0.00524902
0.0129395
0.0203247
0.0289307
0.0410156
0.0598145
0.0734863
0.0841675
0.101501
0.110352
0.127075
0.138062
0.146912
0.159241
0.169983
0.179932
0.182068
0.189331
0.199524
0.201599
0.20282
0.213135
0.217346
0.215027
0.213806
0.212097
0.207886
0.200806
0.19574
0.191284
0.182434
0.173157
0.165222
0.158752
0.149719
0.136902
0.125244
0.11792
0.111633
0.100769
0.0859985
0.0757446
0.0765991
0.0733032
0.0703125
0.0654297
0.06073
0.0566406
0.0495605
0.0447388
0.0339355
0.0176392
0.0103149
0.00457764
-0.00317383
-0.0110474
-0.0152588
-0.019165
-0.0267944
-0.0344238
-0.0346069
-0.036377
-0.0360107
-0.0305176
-0.0311279
-0.034668
-0.0334473
-0.0401611
-0.0438232
-0.0409546
-0.0444946
-0.0395508
-0.0436401
-0.0446777
-0.0440674
-0.0505981
-0.052124
-0.0544434
-0.059021
-0.0541382
-0.055542
-0.0609741
-0.0553589
-0.0617065
-0.0588989
-0.0574341
-0.0603027
-0.0598145
-0.0640869
-0.0599365
-0.0592651
-0.0592651
-0.062439
-0.0635986
-0.0657349
-0.0626221
-0.0574951
-0.0557861
-0.0543213
-0.0509644
-0.0488281
-0.0567017
-0.053833
-0.0585327
-0.0541382
-0.0525513
-0.0525513
-0.0545654
-0.0546875
-0.0510864
-0.0510864
-0.0504761
-0.0474854
-0.0487061
-0.0424805
-0.0426025
-0.0529175
-0.0631104
-0.0731812
-0.0715332
-0.0718994
-0.0671387
-0.0617676
-0.0635986
-0.0710449
-0.0688477
-0.0621338
-0.0584717
-0.057373
-0.0601196
-0.0640259
-0.0690918
-0.0733643
-0.0828857
-0.0878906
-0.0895386
-0.0904541
-0.0899048
-0.0916748
-0.0907593
-0.0931396
-0.100281
-0.108582
-0.11731
-0.109436
-0.102905
-0.093689
-0.0923462
-0.0875244
-0.0819092
-0.0785522
-0.0759888
-0.0784302
-0.0732422
-0.0688477
-0.0648193
-0.0614014
-0.0611572
-0.052002
-0.0442505
-0.043457
-0.0415649
-0.0339966
-0.0266724
-0.0217285
-0.0194702
-0.0136719
-0.0163574
-0.0165405
-0.0123901
-0.0105591
-0.00531006
-0.000610352
0.00469971
0.0164795
0.0296631
0.0414429
0.0460815
0.0531616
0.0604248
0.0727539
0.0858765
0.0998535
0.113831
0.119812
0.13501
0.149658
0.161438
0.174194
0.186707
0.190369
0.191345
0.192627
0.192993
0.19342
0.195557
0.199341
0.204407
0.196228
0.191895
0.188904
0.187683
0.180908
0.170837
0.161621
0.151062
0.149841
0.140625
0.127014
0.118652
0.109436
0.100464
0.101685
0.090332
0.0836182
0.0766602
0.071106
0.0552368
0.0569458
0.0545654
0.0541992
0.0403442
0.0415649
0.0437622
0.0369263
0.0321655
0.0313721
0.0311279
0.0307617
0.0265503
0.0247192
0.0247803
0.0183105
0.0140381
0.00891113
0.00482178
-0.00231934
-0.00799561
-0.0128784
-0.0192871
-0.0234375
-0.026062
-0.0310059
-0.0321045
-0.0303955
-0.0283203
-0.0253906
-0.0222168
-0.024231
-0.0184326
-0.0203857
-0.015686
-0.0123291
-0.0172119
-0.0149536
-0.0126953
-0.0118408
-0.00976563
-0.0100098
-0.0128174
-0.0130615
-0.00878906
-0.0118408
-0.0130005
-0.0109253
-0.0162964
-0.0192871
-0.0275879
-0.0274658
-0.0377197
-0.0386353
-0.0330811
-0.0391846
-0.0359497
-0.0342407
-0.0390625
-0.0419312
-0.0446777
-0.039978
-0.0396118
-0.038208
-0.0402222
-0.0429077
-0.0449219
-0.0475464
-0.045166
-0.0462036
-0.0498657
-0.0507202
-0.0529785
-0.0527954
-0.0540161
-0.0542603
-0.0579834
-0.0593262
-0.0598755
-0.0770264
-0.0812988
-0.0844116
-0.0842896
-0.0830688
-0.0823364
-0.0830688
-0.076355
-0.0778198
-0.0731201
-0.0710449
-0.062561
-0.0610352
-0.0548706
-0.0497437
-0.0499878
-0.0480347
-0.0490723
-0.0495605
-0.0530396
-0.0502319
-0.0541382
-0.0534668
-0.0560303
-0.0593872
-0.0603027
-0.0576782
-0.0593872
-0.0570068
-0.0578003
-0.0548096
-0.0564575
-0.0546265
-0.0528564
-0.0541992
-0.052063
-0.0557251
-0.0559082
-0.0537109
-0.0543823
-0.0543213
-0.0562744
-0.0554199
-0.0514526
-0.0441895
-0.0391846
-0.0359497
-0.0275879
-0.0167847
-0.00634766
-0.00164795
0.00897217
0.00976563
0.0116577
0.0159912
0.0192871
0.0238037
0.0322266
0.0501099
0.0565796
0.0720215
0.0870972
0.10199
0.122192
0.136536
0.148804
0.147766
0.124634
0.139526
0.144775
0.156921
0.157288
0.166443
0.169189
0.170837
0.164185
0.160583
0.158203
0.157532
0.147217
0.139465
0.130127
0.129517
0.118958
0.110901
0.110535
0.106628
0.0934448
0.086731
0.0665283
0.0674438
0.0603027
0.0489502
0.0418091
0.0367432
0.0297241
0.0268555
0.0193481
0.0175171
0.00811768
-0.000976563
-0.00598145
-0.0142822
-0.0167236
-0.0258789
-0.0299683
-0.0328369
-0.0371094
-0.03125
-0.0343628
-0.039917
-0.0426025
-0.0435791
-0.0457764
-0.0444946
-0.0492554
-0.052002
-0.052124
-0.0450439
-0.0435791
-0.0349121
-0.0305176
-0.0264282
-0.0188599
-0.0128174
-0.00585938
-0.00665283
-0.000610352
-0.00177002
-0.00177002
-0.00830078
-0.00860596
-0.00671387
-0.00933838
-0.00415039
-0.00360107
-0.0120239
-0.0160522
-0.0174561
-0.0159912
-0.0147095
-0.0186157
-0.0123901
-0.012146
-0.0169067
-0.0148926
-0.0139771
-0.00769043
-0.0101929
-0.00634766
-0.00463867
0.000671387
-0.00262451
-0.012207
-0.0194092
-0.0236816
-0.0256958
-0.0330811
-0.0383911
-0.0435791
-0.0473633
-0.0471802
-0.0465088
-0.0532227
-0.0557251
-0.0601196
-0.0544434
-0.0616455
-0.0662842
-0.0692749
-0.0715332
-0.072937
-0.076416
-0.0774536
-0.0840454
-0.086731
-0.0907593
-0.0905762
-0.0930176
-0.0912476
-0.090332
-0.0852051
-0.0819702
-0.0794678
-0.0718994
-0.0776978
-0.0788574
-0.0722046
-0.0748901
-0.0707397
-0.0702515
-0.0681152
-0.0718994
-0.0684204
-0.0722656
-0.0751343
-0.0697021
-0.0700684
-0.0686646
-0.0682983
-0.0737915
-0.0733643
-0.0740356
-0.0738525
-0.0690308
-0.0689697
-0.0738525
-0.0826416
-0.0808716
-0.0782471
-0.0750732
-0.0630493
-0.0576782
-0.0563354
-0.0577393
-0.0567017
-0.0521851
-0.0512085
-0.0464478
-0.0411377
-0.0419922
-0.0284424
-0.0200195
-0.00823975
0.0129395
0.0274658
0.0467529
0.0617676
0.0771484
0.0874634
0.1026
0.119873
0.129944
0.146484
0.158752
0.171936
0.177979
0.182007
0.187622
0.19519
0.195007
0.19751
0.195923
0.195496
0.19696
0.196106
0.193909
0.191101
0.189819
0.188416
0.185608
0.180115
0.170349
0.168457
0.168213
0.159424
0.15802
0.146667
0.141174
0.134155
0.124268
0.117432
0.113525
0.10791
0.103149
0.0932007
0.0858765
0.0753784
0.0604248
0.0523071
0.0475464
0.0371704
0.0310669
0.0287476
0.0196533
0.0197144
0.0152588
0.0122681
0.00952148
0.0106812
0.00292969
0.00146484
0.000366211
-0.00390625
-0.00891113
-0.0088501
-0.00799561
-0.00244141
-0.00518799
-0.00646973
-0.00415039
-0.012146
-0.0161743
-0.0206299
-0.0229492
-0.0205688
-0.0274658
-0.0276489
-0.0253296
-0.0307617
-0.029541
-0.0325928
-0.03479
-0.0388794
-0.0406494
-0.0454102
-0.0531616
-0.0512085
-0.057373
-0.0522461
-0.05896
-0.0625
-0.0633545
-0.0634155
-0.0623169
-0.0668945
-0.0664673
-0.071228
-0.0773926
-0.0759888
-0.0761108
-0.0770264
-0.076355
-0.0796509
-0.0805054
-0.0819702
-0.0786133
-0.0858765
-0.0922241
-0.101868
-0.108459
-0.112
-0.109314
-0.112305
-0.112183
-0.117554
-0.116882
-0.117981
-0.119324
-0.118591
-0.11615
-0.109741
-0.106323
-0.108521
-0.0988159
-0.0990601
-0.100281
-0.102051
-0.10437
-0.102478
-0.102051
-0.0998535
-0.102539
-0.0949097
-0.0935669
-0.0910034
-0.0858154
-0.0820923
-0.0792236
-0.0728149
-0.0773315
-0.0748901
-0.0735474
-0.0705566
-0.0610352
-0.0577393
-0.0557861
-0.0513916
-0.0568848
-0.0541992
-0.0526123
-0.0532837
-0.0521851
-0.0443115
-0.0421143
-0.0390625
-0.0421143
-0.0501099
-0.0521851
-0.0498657
-0.0496826
-0.0482788
-0.0513306
-0.0477295
-0.0509033
-0.0541992
-0.0471802
-0.0447388
-0.0390015
-0.043335
-0.0361938
-0.032959
-0.0273438
-0.0218506
-0.0109863
-0.00390625
0.00445557
0.00628662
0.0211182
0.0405884
0.0558472
0.0766602
0.100525
0.130798
0.154541
0.177063
0.196716
0.208069
0.226013
0.233337
0.24408
0.248108
0.252075
0.250183
0.252686
0.255676
0.258972
0.255981
0.253174
0.251221
0.24292
0.231873
0.21936
0.215881
0.210876
0.205444
0.200012
0.189697
0.182556
0.176514
0.174194
0.170227
0.155823
0.146118
0.140503
0.135559
0.128845
0.12384
0.1203
0.107544
0.0956421
0.0858765
0.0764771
0.065918
0.0603027
0.0574341
0.0529785
0.050354
0.0444336
0.0428467
0.0307617
0.0249634
0.022644
0.0148315
0.000732422
-0.0197144
-0.0157471
-0.0143433
-0.0100708
-0.00769043
-0.00592041
-0.00299072
-0.0078125
-0.010437
-0.0134888
-0.0120239
-0.0150146
-0.0148926
-0.0101318
-0.00115967
0.000976563
0.00262451
0.00109863
-0.0045166
-0.0125122
-0.0133667
-0.0184326
-0.022644
-0.022522
-0.0289307
-0.0258789
-0.0275269
-0.0278931
-0.0247803
-0.026062
-0.0317383
-0.0339966
-0.0354004
-0.0360107
-0.0359497
-0.0380249
-0.0383911
-0.034668
-0.0355835
-0.0365601
-0.0391846
-0.0413208
-0.0401611
-0.0394287
-0.0415649
-0.0402832
-0.0474243
-0.0418701
-0.0427246
-0.0425415
-0.0480957
-0.0583496
-0.0566406
-0.0565796
-0.0614014
-0.0526123
-0.0571899
-0.0629272
-0.0681152
-0.0697021
-0.0697632
-0.0739136
-0.0812988
-0.0847168
-0.0890503
-0.0898438
-0.0928955
-0.100586
-0.108276
-0.111267
-0.116089
-0.117859
-0.122253
-0.11853
-0.117004
-0.116821
-0.116638
-0.116699
-0.118713
-0.112915
-0.116089
-0.109802
-0.111389
-0.113831
-0.114624
-0.120911
-0.118835
-0.115356
-0.112976
-0.115356
-0.11084
-0.106201
-0.0994263
-0.0913696
-0.086731
-0.0802612
-0.078186
-0.0745239
-0.076355
-0.0776367
-0.072937
-0.071228
-0.0700073
-0.0653687
-0.0669556
-0.0626831
-0.0614014
-0.0584717
-0.0610962
-0.0579834
-0.0505371
-0.055481
-0.0577393
-0.0543823
-0.0581055
-0.0564575
-0.0470581
-0.0368042
-0.0240479
-0.0213013
-0.0166626
-0.0100708
0.0012207
0.0160522
0.0309448
0.0548096
0.0708008
0.0897827
0.110718
0.122559
0.13623
0.14801
0.158264
0.164001
0.172241
0.174316
0.172668
0.174133
0.175659
0.185425
0.178772
0.161072
0.162231
0.163269
0.167725
0.166077
0.156067
0.152893
0.146179
0.145752
0.139648
0.135071
0.132385
0.126343
0.123291
0.114258
0.109253
0.103394
0.098938
0.0904541
0.0838623
0.0762329
0.069458
0.0610962
0.0509644
0.0445557
0.0386963
0.032959
0.0283203
0.0267334
0.0303955
0.0362549
0.0445557
0.0442505
0.0314331
0.0283203
0.0241699
0.0303345
0.0328369
0.0320435
0.0332642
0.0328369
0.0328369
0.031311
0.0252686
0.020874
0.0137939
0.0130615
0.00958252
0.00323486
0.00238037
-0.00408936
-0.00512695
-0.00341797
-0.00750732
-0.00976563
-0.0176392
-0.0184326
-0.0221558
-0.0250854
-0.0247192
-0.0236816
-0.0228271
-0.0172119
-0.0134888
-0.00140381
0.0010376
0.00280762
0.00921631
0.0134888
0.0159912
0.0152588
0.0123291
0.0110474
0.0106201
0.00219727
-0.00836182
-0.0112305
-0.0161743
-0.013916
-0.0167236
-0.0166016
-0.0288696
-0.0376587
-0.041687
-0.0479126
-0.0493164
-0.055603
-0.0604248
-0.0614014
-0.0592041
-0.0591431
-0.0596313
-0.0621338
-0.0643921
-0.0609741
-0.0647583
-0.0719604
-0.072998
-0.0764771
-0.0793457
-0.0848999
-0.0860596
-0.0827637
-0.0856323
-0.0874634
-0.0898438
-0.0894775
-0.0863647
-0.0856323
-0.0859375
-0.0829468
-0.0807495
-0.0814819
-0.0830078
-0.0779419
-0.0771484
-0.0821533
-0.0831299
-0.0724487
-0.0679321
-0.0666504
-0.0600586
-0.0718994
-0.0758667
-0.0744629
-0.0726318
-0.0737915
-0.0767212
-0.0742798
-0.0718384
-0.0709839
-0.0709229
-0.0656738
-0.065918
-0.0577393
-0.0509644
-0.0493164
-0.0465088
-0.0454102
-0.0370483
-0.0355225
-0.0321655
-0.0274048
-0.0236816
-0.0263062
-0.0219727
-0.0161133
-0.0101318
0.00177002
0.00817871
0.0204468
0.0323486
0.0453491
0.0477905
0.0554199
0.057373
0.0673828
0.0787964
0.0946045
0.107544
0.117188
0.132324
0.143494
0.15625
0.164368
0.172363
0.182678
0.188782
0.189209
0.187683
0.188293
0.190308
0.189514
0.183899
0.182373
0.177429
0.179321
0.167725
0.164429
0.162659
0.155518
0.155579
0.148193
0.142456
0.13623
0.131409
0.124512
0.120728
0.116821
0.10968
0.103577
0.0888062
0.0819702
0.072998
0.0673218
0.0636597
0.0608521
0.0545654
0.043457
0.0439453
0.0385742
0.0319824
0.0275269
0.0281982
0.0201416
0.0193481
0.0220337
0.0220947
0.0232544
0.022583
0.0219116
