0.128235	0.00701904	
0.128906	0.00366211	
0.129517	-0.00152588	
0.130127	-0.00732422	
0.130798	-0.0131226	
0.131592	-0.0195313	
0.132629	-0.0244141	
0.133728	-0.0247192	
0.134827	-0.0219727	
0.135742	-0.0177002	
0.136353	-0.0125122	
0.136536	-0.00762939	
0.136169	-0.00579834	
0.135254	-0.00701904	
0.13385	-0.00946045	
0.131958	-0.0115967	
0.129883	-0.0131226	
0.127686	-0.015564	
0.12561	-0.0198364	
0.123596	-0.0238037	
0.121765	-0.0241089	
0.120178	-0.0219727	
0.118652	-0.0177002	
0.117249	-0.0125122	
0.115967	-0.00823975	
0.114685	-0.00579834	
0.113281	-0.00396729	
0.111755	-0.00183105	
0.110107	0.00152588	
0.108154	0.00396729	
0.105957	0.00518799	
0.103577	0.00762939	
0.100952	0.0109863	
0.0983887	0.0131226	
0.0958252	0.0137329	
0.0934448	0.0134277	
0.0912476	0.0115967	
0.0892944	0.00701904	
0.0874023	-0.0012207	
0.0856934	-0.0119019	
0.0841064	-0.0219727	
0.0827026	-0.0286865	
0.081543	-0.0320435	
0.0806885	-0.0338745	
0.0803833	-0.0344849	
0.0807495	-0.0332642	
0.0819092	-0.0296021	
0.0837402	-0.0241089	
0.0862427	-0.0149536	
0.0891724	-0.00335693	
0.0922241	0.00823975	
0.0952148	0.0186157	
0.0978394	0.0268555	
0.0997925	0.0311279	
0.10083	0.0314331	
0.10083	0.0283813	
0.0999146	0.020752	
0.0980835	0.00976563	
0.09552	-0.00244141	
0.0923462	-0.0146484	
0.0888062	-0.0244141	
0.0852661	-0.0286865	
0.0817871	-0.0296021	
0.0786743	-0.0289917	
0.0759888	-0.0268555	
0.0737305	-0.0234985	
0.0718994	-0.0195313	
0.0703735	-0.0164795	
0.0690918	-0.0146484	
0.0678711	-0.0128174	
0.0666504	-0.0109863	
0.0653687	-0.0088501	
0.0640869	-0.00732422	
0.0626831	-0.00640869	
0.0613403	-0.00610352	
0.0600586	-0.00732422	
0.059021	-0.00976563	
0.0581665	-0.0143433	
0.0575562	-0.0192261	
0.0571899	-0.0231934	
0.0571289	-0.0241089	
0.0571289	-0.0210571	
0.057251	-0.0152588	
0.0571899	-0.00823975	
0.0570068	-0.000610352	
0.0565796	0.00732422	
0.0559082	0.0149536	
0.0551147	0.0204468	
0.0541382	0.0234985	
0.0531006	0.0219727	
0.052002	0.015564	
0.0509644	0.00549316	
0.0499878	-0.00427246	
0.0490112	-0.0125122	
0.0480347	-0.0210571	
0.0469971	-0.0317383	
0.0457153	-0.0439453	
0.0443115	-0.0527954	
0.0428467	-0.057373	
0.0414429	-0.0592041	
0.0401001	-0.0592041	
0.0387573	-0.057373	
0.0374146	-0.0531006	
0.0360718	-0.0466919	
0.0348511	-0.0390625	
0.0338135	-0.0299072	
0.03302	-0.0198364	
0.0322876	-0.0109863	
0.0319214	-0.00366211	
0.0318604	0.00213623	
0.0322266	0.00762939	
0.032959	0.0131226	
0.0337524	0.0180054	
0.0344238	0.0213623	
0.034668	0.0219727	
0.0343018	0.0195313	
0.03302	0.0140381	
0.0308228	0.00640869	
0.027832	-0.00305176	
0.0241699	-0.0131226	
0.0200806	-0.0216675	
0.015686	-0.0283813	
0.0113525	-0.0335693	
0.00720215	-0.0357056	
0.00341797	-0.0357056	
0.000305176	-0.0350952	
-0.00219727	-0.0323486	
-0.00402832	-0.0271606	
-0.00518799	-0.0216675	
-0.00561523	-0.0177002	
-0.00543213	-0.0131226	
-0.00469971	-0.00640869	
-0.00360107	0.00305176	
-0.00213623	0.0125122	
-0.000732422	0.0180054	
0.000610352	0.017395	
0.00158691	0.0100708	
0.00231934	-0.00152588	
0.00268555	-0.0137329	
0.00268555	-0.0274658	
0.00244141	-0.0445557	
0.00195313	-0.0601196	
0.00134277	-0.0708008	
0.000732422	-0.0750732	
0.00012207	-0.0723267	
-0.000488281	-0.0640869	
-0.00109863	-0.0527954	
-0.00164795	-0.0393677	
-0.00231934	-0.0250244	
-0.00317383	-0.0119019	
-0.00427246	-0.000305176	
-0.0057373	0.00762939	
-0.00744629	0.0112915	
-0.00952148	0.0109863	
-0.0119019	0.00823975	
-0.0144653	0.00518799	
-0.0172119	0.00213623	
-0.0199585	-0.00152588	
-0.022583	-0.00671387	
-0.0249634	-0.0119019	
-0.0270996	-0.0137329	
-0.0289307	-0.0112915	
-0.0304565	-0.00701904	
-0.0316772	-0.00427246	
-0.0326538	-0.00335693	
-0.0334473	-0.00335693	
-0.0342407	-0.00152588	
-0.0350342	-0.000610352	
-0.0358276	-0.00366211	
-0.0367432	-0.00854492	
-0.0377808	-0.0125122	
-0.0390015	-0.0161743	
-0.0404053	-0.0189209	
-0.0419312	-0.0210571	
-0.0437012	-0.0219727	
-0.0457153	-0.0222778	
-0.0479126	-0.0228882	
-0.050293	-0.0222778	
-0.0527954	-0.0201416	
-0.0552979	-0.0170898	
-0.0576782	-0.0149536	
-0.0599976	-0.012207	
-0.0621338	-0.00640869	
-0.064209	0.00396729	
-0.06604	0.0167847	
-0.067627	0.0302124	
-0.0690918	0.0424194	
-0.0706787	0.0512695	
-0.0725708	0.0564575	
-0.0750732	0.0558472	
-0.0783081	0.0515747	
-0.0823364	0.0448608	
-0.0871582	0.0372314	
-0.0927124	0.0296021	
-0.098938	0.0234985	
-0.10553	0.0183105	
-0.112122	0.0137329	
-0.118591	0.00915527	
-0.124634	0.00366211	
-0.130249	-0.00335693	
-0.135254	-0.012207	
-0.139832	-0.0222778	
-0.144104	-0.0320435	
-0.148132	-0.0387573	
-0.1521	-0.0424194	
-0.156006	-0.0457764	
-0.159912	-0.0479126	
-0.163818	-0.0454712	
-0.167664	-0.0415039	
-0.171448	-0.0390625	
-0.17511	-0.0387573	
-0.178589	-0.0402832	
-0.181763	-0.0436401	
-0.184631	-0.0488281	
-0.187134	-0.0558472	
-0.18927	-0.0622559	
-0.19104	-0.0656128	
-0.192444	-0.0640869	
-0.193542	-0.0588989	
-0.194214	-0.0527954	
-0.194641	-0.0463867	
-0.194946	-0.0384521	
-0.195313	-0.0302124	
-0.195679	-0.0250244	
-0.196228	-0.0250244	
-0.197083	-0.0286865	
-0.198242	-0.0341797	
-0.199829	-0.0408936	
-0.201782	-0.0466919	
-0.204163	-0.0500488	
-0.206787	-0.0482178	
-0.209656	-0.0411987	
-0.212524	-0.0302124	
-0.215271	-0.0189209	
-0.217957	-0.00976563	
-0.220459	-0.00488281	
-0.222717	-0.00305176	
-0.22467	-0.00488281	
-0.226379	-0.0115967	
-0.227905	-0.0222778	
-0.229309	-0.0326538	
-0.230713	-0.0396729	
-0.232056	-0.0424194	
-0.233459	-0.0372314	
-0.234924	-0.020752	
-0.23645	0.00823975	
-0.238037	0.0485229	
-0.23938	0.0991821	
-0.240479	0.157471	
-0.241394	0.218506	
-0.241882	0.276489	
-0.241943	0.327148	
-0.241516	0.365601	
-0.240723	0.386658	
-0.239685	0.388794	
-0.238403	0.37262	
-0.237244	0.33905	
-0.236267	0.290222	
-0.235535	0.229797	
-0.235168	0.159912	
-0.235291	0.085144	
-0.23584	0.0119019	
-0.236755	-0.0540161	
-0.237976	-0.108643	
-0.239441	-0.151978	
-0.24115	-0.180664	
-0.242859	-0.193481	
-0.244507	-0.189514	
-0.245972	-0.171814	
-0.247192	-0.145264	
-0.248108	-0.114441	
-0.248657	-0.0836182	
-0.248962	-0.0570679	
-0.248901	-0.0366211	
-0.248596	-0.022583	
-0.248108	-0.0131226	
-0.24762	-0.00610352	
-0.247192	-0.000915527	
-0.246948	0.00152588	
-0.247009	0.00183105	
-0.247437	0.00183105	
-0.24823	0.000915527	
-0.24939	-0.0012207	
-0.250793	-0.00610352	
-0.252563	-0.012207	
-0.2547	-0.0186157	
-0.257202	-0.0244141	
-0.259949	-0.027771	
-0.262573	-0.027771	
-0.265015	-0.0219727	
-0.26709	-0.012207	
-0.268738	-0.00274658	
-0.270081	0.00427246	
-0.270996	0.0088501	
-0.271606	0.0100708	
-0.271912	0.00762939	
-0.272034	0.000915527	
-0.272278	-0.00579834	
-0.272644	-0.0088501	
-0.273254	-0.00793457	
-0.273926	-0.00427246	
-0.274658	0.00274658	
-0.275391	0.0140381	
-0.276123	0.0274658	
-0.276794	0.0378418	
-0.277405	0.0436401	
-0.277954	0.0445557	
-0.278381	0.0405884	
-0.27887	0.0320435	
-0.279297	0.0222778	
-0.279724	0.0149536	
-0.28009	0.0119019	
-0.280518	0.012207	
-0.281006	0.0149536	
-0.281494	0.0198364	
-0.282043	0.0271606	
-0.282593	0.0354004	
-0.283142	0.0402832	
-0.283813	0.0421143	
-0.284546	0.0430298	
-0.285339	0.043335	
-0.286194	0.0436401	
-0.287231	0.0445557	
-0.288635	0.0460815	
-0.29071	0.0479126	
-0.293396	0.0509644	
-0.296936	0.0534058	
-0.301147	0.0546265	
-0.306091	0.0567627	
-0.311584	0.0598145	
-0.317566	0.0631714	
-0.323669	0.0656128	
-0.329712	0.0671387	
-0.33551	0.0689697	
-0.341064	0.0720215	
-0.346191	0.0750732	
-0.350891	0.0765991	
-0.355225	0.0787354	
-0.359192	0.083313	
-0.362915	0.0891113	
-0.366272	0.0964355	
-0.369263	0.10498	
-0.371765	0.114136	
-0.373779	0.122986	
-0.375366	0.130005	
-0.376648	0.133972	
-0.377686	0.137024	
-0.37854	0.140686	
-0.379395	0.144653	
-0.380432	0.148926	
-0.381653	0.153503	
-0.382996	0.159302	
-0.384277	0.168152	
-0.385315	0.177307	
-0.385925	0.184326	
-0.385986	0.187988	
-0.385376	0.188904	
-0.383911	0.187378	
-0.381714	0.184326	
-0.378723	0.182495	
-0.374939	0.185242	
-0.370728	0.192566	
-0.366028	0.202637	
-0.361084	0.216064	
-0.355896	0.231323	
-0.350342	0.246582	
-0.344604	0.259705	
-0.338562	0.270386	
-0.332336	0.277405	
-0.325928	0.280151	
-0.319397	0.280151	
-0.312683	0.279846	
-0.305908	0.280151	
-0.299011	0.280762	
-0.292053	0.281067	
-0.284912	0.282593	
-0.27771	0.286865	
-0.270203	0.293579	
-0.26239	0.300293	
-0.254333	0.305481	
-0.245911	0.309143	
-0.237183	0.310974	
-0.228333	0.310974	
-0.219482	0.309143	
-0.210754	0.305786	
-0.202209	0.301208	
-0.193848	0.294495	
-0.185791	0.288391	
-0.17804	0.283203	
-0.170715	0.278015	
-0.163696	0.271606	
-0.157043	0.263367	
-0.150818	0.252075	
-0.144836	0.238342	
-0.139221	0.224609	
-0.134033	0.210876	
-0.129089	0.198059	
-0.124451	0.187683	
-0.119995	0.180664	
-0.115601	0.175781	
-0.111267	0.171204	
-0.106995	0.16449	
-0.102844	0.153809	
-0.0988159	0.137634	
-0.0949097	0.115662	
-0.0911255	0.088501	
-0.0875854	0.0582886	
-0.0842285	0.0280762	
-0.0810547	0.00274658	
-0.078064	-0.0164795	
-0.0753174	-0.0286865	
-0.0726318	-0.03479	
-0.0701294	-0.0354004	
-0.067688	-0.0317383	
-0.0651855	-0.0256348	
-0.062561	-0.0192261	
-0.0599976	-0.015564	
-0.057373	-0.0161743	
-0.0547485	-0.0204468	
-0.0521851	-0.0280762	
-0.0497437	-0.0390625	
-0.0474854	-0.0515747	
-0.0455322	-0.0634766	
-0.0439453	-0.0723267	
-0.0427856	-0.0793457	
-0.0420532	-0.0830078	
-0.041626	-0.0823975	
-0.0413208	-0.0787354	
-0.0410767	-0.0720215	
-0.0408325	-0.0634766	
-0.0404053	-0.0558472	
-0.039917	-0.0509644	
-0.0392456	-0.0509644	
-0.0384521	-0.0543213	
-0.0376587	-0.0585938	
-0.0369263	-0.0643921	
-0.0362549	-0.0708008	
-0.0358887	-0.0775146	
-0.0357056	-0.0823975	
-0.0357666	-0.0863647	
-0.0360107	-0.0891113	
-0.0363159	-0.0909424	
-0.036499	-0.0933838	
-0.0366211	-0.0961304	
-0.036438	-0.0985718	
-0.0361328	-0.101013	
-0.0356445	-0.10437	
-0.0350952	-0.105896	
-0.0346069	-0.10498	
-0.0341797	-0.101929	
-0.0338745	-0.0961304	
-0.0338135	-0.0878906	
-0.0338745	-0.0814819	
-0.0338745	-0.0778198	
-0.0338745	-0.0775146	
-0.0335693	-0.0799561	
-0.0330811	-0.0842285	
-0.0324097	-0.088501	
-0.0314941	-0.0921631	
-0.0304565	-0.0958252	
-0.0292358	-0.100098	
-0.027771	-0.105591	
-0.026062	-0.109863	
-0.0241089	-0.111389	
-0.0217896	-0.110168	
-0.0192261	-0.107727	
-0.0162354	-0.101318	
-0.0130005	-0.0888062	
-0.00958252	-0.0738525	
-0.00610352	-0.0567627	
-0.00274658	-0.0390625	
0.000244141	-0.0234985	
0.00274658	-0.010376	
0.00439453	-0.00335693	
0.00518799	-0.00549316	
0.00494385	-0.0161743	
0.00384521	-0.0320435	
0.00183105	-0.0494385	
-0.00109863	-0.065918	
-0.0045166	-0.0805664	
-0.00811768	-0.0921631	
-0.0113525	-0.0979614	
-0.013855	-0.0979614	
-0.0154419	-0.0949097	
-0.0159912	-0.0912476	
-0.0154419	-0.0878906	
-0.013916	-0.0860596	
-0.0118408	-0.0857544	
-0.00946045	-0.0860596	
-0.00714111	-0.0857544	
-0.00512695	-0.0860596	
-0.00360107	-0.0878906	
-0.00268555	-0.090332	
-0.00231934	-0.0930786	
-0.00238037	-0.09552	
-0.00286865	-0.098877	
-0.00354004	-0.101929	
-0.00421143	-0.103455	
-0.00482178	-0.101929	
-0.0055542	-0.0973511	
-0.00640869	-0.090332	
-0.00750732	-0.0811768	
-0.0088501	-0.0708008	
-0.0105591	-0.0616455	
-0.0126343	-0.0552368	
-0.0150146	-0.0540161	
-0.0177002	-0.0585938	
-0.0205688	-0.0665283	
-0.0234375	-0.0741577	
-0.0262451	-0.0790405	
-0.0288086	-0.0802612	
-0.031189	-0.078125	
-0.0332031	-0.0741577	
-0.0349121	-0.0692749	
-0.0360718	-0.0637817	
-0.0366211	-0.06073	
-0.036377	-0.0610352	
-0.0354614	-0.0650024	
-0.0338745	-0.0732422	
-0.0317383	-0.0848389	
-0.0292969	-0.0976563	
-0.0269775	-0.108948	
-0.0250244	-0.118408	
-0.0237427	-0.126038	
-0.0232544	-0.13092	
-0.0236206	-0.132141	
-0.0247803	-0.13031	
-0.0264893	-0.125732	
-0.0282593	-0.117798	
-0.0297241	-0.106812	
-0.0305786	-0.0946045	
-0.0307007	-0.0848389	
-0.0299683	-0.0787354	
-0.0283813	-0.0769043	
-0.026001	-0.0796509	
-0.0230103	-0.0854492	
-0.0196533	-0.0921631	
-0.0161743	-0.098877	
-0.0127563	-0.10437	
-0.00958252	-0.108643	
-0.0067749	-0.108337	
-0.0043335	-0.102539	
-0.00238037	-0.0946045	
-0.000854492	-0.0854492	
0.000183105	-0.0759888	
0.000854492	-0.0683594	
0.00109863	-0.0656128	
0.000671387	-0.0689697	
-0.000488281	-0.0762939	
-0.00231934	-0.0863647	
-0.00488281	-0.0973511	
-0.00811768	-0.108948	
-0.0120239	-0.120239	
-0.0164185	-0.13031	
-0.0210571	-0.135498	
-0.0258179	-0.133667	
-0.0303955	-0.127563	
-0.03479	-0.120239	
-0.0388184	-0.11322	
-0.0425415	-0.107727	
-0.0459595	-0.103455	
-0.0490723	-0.100098	
-0.0519409	-0.0991821	
-0.0546875	-0.101318	
-0.057373	-0.102844	
-0.0600586	-0.102539	
-0.0627441	-0.101013	
-0.0654907	-0.0982666	
-0.0683594	-0.093689	
-0.0713501	-0.0878906	
-0.074585	-0.0823975	
-0.0778809	-0.0793457	
-0.0813599	-0.0796509	
-0.0848389	-0.0839233	
-0.0881958	-0.0921631	
-0.0914307	-0.101013	
-0.0945435	-0.111084	
-0.0973511	-0.12207	
-0.0998535	-0.131531	
-0.102173	-0.13855	
-0.104309	-0.142212	
-0.106384	-0.140686	
-0.108521	-0.133667	
-0.110718	-0.124817	
-0.113037	-0.115356	
-0.11554	-0.107117	
-0.118164	-0.101013	
-0.12085	-0.0979614	
-0.123657	-0.0967407	
-0.126526	-0.0961304	
-0.129333	-0.0979614	
-0.131958	-0.101624	
-0.134155	-0.105591	
-0.135803	-0.107422	
-0.136902	-0.107117	
-0.137329	-0.10437	
-0.137085	-0.101013	
-0.136169	-0.098877	
-0.134583	-0.0979614	
-0.132629	-0.0970459	
-0.130432	-0.0958252	
-0.128235	-0.09552	
-0.126282	-0.0970459	
-0.124634	-0.0997925	
-0.123352	-0.101318	
-0.122498	-0.100403	
-0.122009	-0.0970459	
-0.121765	-0.0909424	
-0.121826	-0.0842285	
-0.122131	-0.0799561	
-0.122498	-0.0772095	
-0.123047	-0.0744629	
-0.123596	-0.0726318	
-0.124207	-0.0741577	
-0.124878	-0.0793457	
-0.12561	-0.0866699	
-0.126404	-0.0952148	
-0.12738	-0.100403	
-0.128906	-0.102234	
-0.130981	-0.100708	
-0.133789	-0.09552	
-0.137329	-0.0875854	
-0.141724	-0.0787354	
-0.146729	-0.0698853	
-0.152283	-0.0601196	
-0.158081	-0.0515747	
-0.164001	-0.0469971	
-0.169861	-0.0469971	
-0.175415	-0.0488281	
-0.180664	-0.0500488	
-0.185486	-0.0500488	
-0.190063	-0.0494385	
-0.194397	-0.0509644	
-0.198547	-0.0552368	
-0.202454	-0.0616455	
-0.206055	-0.0704956	
-0.209351	-0.0799561	
-0.21228	-0.0891113	
-0.214905	-0.0982666	
-0.217163	-0.106506	
-0.219177	-0.11322	
-0.220825	-0.117188	
-0.222168	-0.117188	
-0.223267	-0.115356	
-0.224243	-0.114136	
-0.225098	-0.114746	
-0.225891	-0.116577	
-0.226563	-0.117798	
-0.227234	-0.117798	
-0.228027	-0.115967	
-0.228943	-0.111694	
-0.230103	-0.106201	
-0.231445	-0.100098	
-0.233093	-0.0949097	
-0.235046	-0.0909424	
-0.237305	-0.0888062	
-0.239929	-0.0897217	
-0.242737	-0.0946045	
-0.245728	-0.103149	
-0.248718	-0.112305	
-0.25177	-0.118408	
-0.254639	-0.12146	
-0.257324	-0.122986	
-0.259766	-0.123291	
-0.261902	-0.12146	
-0.263733	-0.118408	
-0.265381	-0.114441	
-0.266846	-0.110168	
-0.268188	-0.106812	
-0.26947	-0.10376	
-0.27063	-0.102234	
-0.271484	-0.101624	
-0.27179	-0.101318	
-0.271545	-0.101929	
-0.270752	-0.101929	
-0.269348	-0.102234	
-0.267456	-0.103455	
-0.265076	-0.104675	
-0.262451	-0.104675	
-0.259644	-0.100708	
-0.256958	-0.0909424	
-0.254456	-0.0756836	
-0.252075	-0.0537109	
-0.249939	-0.0244141	
-0.248047	0.0125122	
-0.246582	0.055542	
-0.245728	0.102234	
-0.245483	0.151367	
-0.245972	0.202332	
-0.247314	0.249329	
-0.24939	0.287781	
-0.252136	0.315247	
-0.255432	0.330811	
-0.258911	0.331116	
-0.26239	0.313721	
-0.265747	0.278931	
-0.268799	0.228577	
-0.271484	0.163269	
-0.273865	0.0869751	
-0.276001	0.00732422	
-0.277893	-0.0686646	
-0.279663	-0.134888	
-0.281433	-0.187988	
-0.283142	-0.22644	
-0.28479	-0.249329	
-0.286438	-0.253601	
-0.288025	-0.241699	
-0.289551	-0.217285	
-0.291077	-0.186462	
-0.292664	-0.155334	
-0.29425	-0.126038	
-0.295898	-0.100708	
-0.297607	-0.0799561	
-0.299255	-0.065918	
-0.301025	-0.0604248	
-0.302856	-0.0619507	
-0.304688	-0.0674438	
-0.30658	-0.072937	
-0.308472	-0.0765991	
-0.310425	-0.0775146	
-0.312317	-0.0744629	
-0.314209	-0.0686646	
-0.31604	-0.06073	
-0.31781	-0.0527954	
-0.319458	-0.0463867	
-0.321045	-0.0430298	
-0.322449	-0.0427246	
-0.323792	-0.045166	
-0.325012	-0.0491333	
-0.326172	-0.0531006	
-0.327271	-0.0549316	
-0.328308	-0.0537109	
-0.329163	-0.0497437	
-0.329834	-0.0430298	
-0.330078	-0.0369263	
-0.329712	-0.0338745	
-0.328796	-0.0332642	
-0.327148	-0.0350952	
-0.32489	-0.039978	
-0.322083	-0.045166	
-0.318848	-0.0479126	
-0.315369	-0.0494385	
-0.31189	-0.0497437	
-0.308594	-0.0473022	
-0.305542	-0.0424194	
-0.302856	-0.0357056	
-0.300415	-0.0280762	
-0.298157	-0.0201416	
-0.296021	-0.0146484	
-0.294067	-0.012207	
-0.292236	-0.0100708	
-0.290833	-0.00610352	
-0.289978	-0.00213623	
-0.289795	-0.000305176	
-0.290405	-0.000915527	
-0.291931	-0.00396729	
-0.294312	-0.00732422	
-0.297424	-0.0100708	
-0.301086	-0.0125122	
-0.305115	-0.0146484	
-0.309204	-0.0161743	
-0.313171	-0.0164795	
-0.316895	-0.0152588	
-0.320313	-0.012207	
-0.323425	-0.00701904	
-0.326294	-0.000305176	
-0.328918	0.00793457	
-0.331299	0.0192261	
-0.333252	0.0326538	
-0.334534	0.045166	
-0.335205	0.0567627	
-0.335144	0.0665283	
-0.334473	0.0720215	
-0.333069	0.0726318	
-0.330994	0.0680542	
-0.328552	0.06073	
-0.325928	0.0512695	
-0.323425	0.0418091	
-0.321228	0.0344849	
-0.319519	0.0308228	
-0.318176	0.0323486	
-0.317139	0.0384521	
-0.316284	0.0494385	
-0.315491	0.0622559	
-0.314575	0.0753784	
-0.313416	0.088501	
-0.31189	0.100098	
-0.309998	0.109558	
-0.307739	0.116882	
-0.305115	0.122986	
-0.302185	0.128479	
-0.29895	0.134583	
-0.295532	0.142212	
-0.29187	0.149841	
-0.287964	0.155945	
-0.283752	0.161438	
-0.279175	0.167236	
-0.274292	0.173035	
-0.269165	0.178528	
-0.263672	0.183105	
-0.257874	0.187683	
-0.25177	0.194397	
-0.245361	0.203552	
-0.238647	0.213318	
-0.23175	0.221558	
-0.22467	0.227661	
-0.217346	0.232239	
-0.209839	0.236206	
-0.202148	0.239563	
-0.194397	0.242615	
-0.186523	0.246277	
-0.17865	0.252686	
-0.170654	0.261536	
-0.162659	0.274048	
-0.154602	0.287781	
-0.146545	0.299988	
-0.13855	0.309448	
-0.130493	0.316772	
-0.122498	0.32135	
-0.114563	0.32135	
-0.106812	0.317078	
-0.0991211	0.310364	
-0.0916138	0.302429	
-0.0842896	0.292053	
-0.0772095	0.27832	
-0.0703125	0.263367	
-0.0635986	0.247192	
-0.0571289	0.231934	
-0.0508423	0.219116	
-0.0447998	0.208435	
-0.0389404	0.200806	
-0.0332642	0.196838	
-0.027832	0.197449	
-0.022644	0.201416	
-0.0175781	0.205688	
-0.0126953	0.205994	
-0.00799561	0.19989	
-0.003479	0.187683	
0.000793457	0.171204	
0.00482178	0.150452	
0.00848389	0.125732	
0.0118408	0.098877	
0.0148926	0.0714111	
0.0175171	0.045166	
0.0197754	0.0228882	
0.0216675	0.00549316	
0.0233765	-0.00701904	
0.0249023	-0.0164795	
0.0264282	-0.0228882	
0.02771	-0.027771	
0.0288086	-0.0305176	
0.0296021	-0.0317383	
0.0303345	-0.0323486	
0.0310669	-0.0341797	
0.0319824	-0.0375366	
0.03302	-0.0418091	
0.0342407	-0.0466919	
0.0357056	-0.0497437	
0.0374756	-0.0518799	
0.0394897	-0.0512695	
0.041687	-0.0488281	
0.0438843	-0.0466919	
0.0460205	-0.0482178	
0.0479736	-0.0518799	
0.0498047	-0.0570679	
0.0513916	-0.062561	
0.0527954	-0.0683594	
0.0541382	-0.0738525	
0.0554199	-0.0787354	
0.0566406	-0.0820923	
0.0578613	-0.083313	
0.059021	-0.0820923	
0.0600586	-0.0796509	
0.0610352	-0.0778198	
0.0618896	-0.0787354	
0.062561	-0.0823975	
0.0630493	-0.0872803	
0.0633545	-0.0921631	
0.0634766	-0.0967407	
0.0634766	-0.0985718	
0.0634155	-0.0970459	
0.0634155	-0.0921631	
0.0634766	-0.0866699	
0.0638428	-0.0830078	
0.0643921	-0.0814819	
0.0651245	-0.0817871	
0.0661011	-0.0827026	
0.0671997	-0.0839233	
0.0683594	-0.0848389	
0.0696411	-0.085144	
0.0709229	-0.0845337	
0.0722656	-0.083313	
0.0736084	-0.0805664	
0.0748291	-0.0744629	
0.0758667	-0.0665283	
0.0765991	-0.0613403	
0.0769043	-0.0592041	
0.0767822	-0.0592041	
0.0760498	-0.0598145	
0.074707	-0.0595093	
0.0727539	-0.0582886	
0.0703735	-0.0576782	
0.067627	-0.0595093	
0.0646973	-0.0637817	
0.0618286	-0.0686646	
0.05896	-0.0738525	
0.0563965	-0.0796509	
0.0540161	-0.0845337	
0.0519409	-0.0872803	
0.0501099	-0.0875854	
0.0484619	-0.0854492	
0.0469971	-0.0799561	
0.0456543	-0.0708008	
0.0443726	-0.0604248	
0.0431519	-0.0506592	
0.0419922	-0.0427246	
0.0408325	-0.0375366	
0.0397339	-0.0360107	
0.0386353	-0.0375366	
0.0375977	-0.0405884	
0.0365601	-0.0439453	
0.0354614	-0.0491333	
0.0341797	-0.057373	
0.0327148	-0.0680542	
0.0309448	-0.0796509	
0.0289917	-0.0909424	
0.0267944	-0.100098	
0.024353	-0.107117	
0.0218506	-0.111084	
0.0195923	-0.109253	
0.0178833	-0.0991821	
0.0169067	-0.0823975	
0.0166626	-0.0613403	
0.017334	-0.0366211	
0.0189209	-0.0128174	
0.0211792	0.00457764	
0.0241089	0.0128174	
0.0272827	0.0128174	
0.0304565	0.00579834	
0.0333862	-0.00610352	
0.0358276	-0.0210571	
0.0377808	-0.0369263	
0.0391846	-0.0506592	
0.0400391	-0.0595093	
0.0405273	-0.0619507	
0.0407104	-0.0595093	
0.0407715	-0.0531006	
0.0407715	-0.0457764	
0.0407715	-0.0402832	
0.0408936	-0.0375366	
0.0411377	-0.0363159	
0.0413818	-0.0363159	
0.0413818	-0.0378418	
0.0410156	-0.0405884	
0.0401611	-0.0436401	
0.0386353	-0.0485229	
0.036438	-0.0546265	
0.0336304	-0.0598145	
0.0303345	-0.0646973	
0.0266724	-0.0701904	
0.0230103	-0.0753784	
0.0195923	-0.0787354	
0.0166016	-0.0796509	
0.0142822	-0.0790405	
0.0125732	-0.0769043	
0.0115967	-0.0735474	
0.0111084	-0.0695801	
0.0109863	-0.0653076	
0.0111084	-0.0595093	
0.0111694	-0.0543213	
0.0111694	-0.0515747	
0.0110474	-0.0494385	
0.0107422	-0.0463867	
0.010376	-0.0430298	
0.0100708	-0.0411987	
0.00982666	-0.0402832	
0.00976563	-0.0411987	
0.0100098	-0.0427246	
0.0106201	-0.0436401	
0.0115967	-0.0436401	
0.0128784	-0.0430298	
0.0142822	-0.0442505	
0.0158691	-0.0482178	
0.017395	-0.0521851	
0.0188599	-0.0546265	
0.0203247	-0.0570679	
0.0217285	-0.0592041	
0.0231323	-0.0595093	
0.0244141	-0.0570679	
0.0257568	-0.0521851	
0.0273438	-0.0460815	
0.0292358	-0.0396729	
0.0315552	-0.0360107	
0.0341797	-0.0366211	
0.0372314	-0.0408936	
0.0405273	-0.0491333	
0.0439453	-0.0613403	
0.0474854	-0.0738525	
0.0509644	-0.0814819	
0.0541992	-0.0839233	
0.0570679	-0.083313	
0.0595703	-0.0796509	
0.0617065	-0.0723267	
0.0634766	-0.0634766	
0.0649414	-0.0567627	
0.0661011	-0.0540161	
0.0668945	-0.055542	
0.0673828	-0.0613403	
0.067749	-0.0692749	
0.0679932	-0.0762939	
0.0681763	-0.0796509	
0.0682983	-0.0787354	
0.0682983	-0.0744629	
0.0681763	-0.0674438	
0.0679932	-0.0598145	
0.067627	-0.0527954	
0.0668945	-0.0469971	
0.0654907	-0.0430298	
0.0632935	-0.0408936	
0.0601196	-0.0393677	
0.0558472	-0.0366211	
0.0505981	-0.032959	
0.0444336	-0.0299072	
0.0375366	-0.0268555	
0.0302734	-0.0247192	
0.0227051	-0.0244141	
0.0151367	-0.0259399	
0.0078125	-0.0317383	
0.000793457	-0.0415039	
-0.0057373	-0.0546265	
-0.0117798	-0.0662231	
-0.0175171	-0.072937	
-0.0229492	-0.0747681	
-0.0281982	-0.072937	
-0.0332031	-0.067749	
-0.0379028	-0.0598145	
-0.0423584	-0.0506592	
-0.0464478	-0.0415039	
-0.0501099	-0.0341797	
-0.0534668	-0.0302124	
-0.0563965	-0.0308228	
-0.05896	-0.0357056	
-0.0613403	-0.0439453	
-0.0635986	-0.0531006	
-0.0658569	-0.062561	
-0.0681152	-0.0714111	
-0.0706177	-0.078125	
-0.0731812	-0.0805664	
-0.0759277	-0.0787354	
-0.0786743	-0.0726318	
-0.0813599	-0.062561	
-0.0839233	-0.0494385	
-0.0863647	-0.0354004	
-0.088562	-0.020752	
-0.0906982	-0.00762939	
-0.0926514	0.000305176	
-0.0946045	0.0012207	
-0.0966187	-0.00305176	
-0.0988159	-0.0115967	
-0.101135	-0.0222778	
-0.103638	-0.0341797	
-0.106201	-0.0442505	
-0.108887	-0.0509644	
-0.111572	-0.0527954	
-0.114197	-0.0491333	
-0.116699	-0.0402832	
-0.119019	-0.0286865	
-0.121155	-0.0180054	
-0.123047	-0.00854492	
-0.124817	-0.000915527	
-0.126526	0.00274658	
-0.128052	0.00213623	
-0.129578	0.000610352	
-0.131104	0.000610352	
-0.13269	0.00335693	
-0.134216	0.00854492	
-0.135742	0.0134277	
-0.137268	0.0183105	
-0.138672	0.0244141	
-0.140015	0.0299072	
-0.141357	0.032959	
-0.142761	0.032959	
-0.144165	0.0280762	
-0.145569	0.0192261	
-0.147034	0.00793457	
-0.14856	-0.00610352	
-0.150085	-0.0189209	
-0.151611	-0.0280762	
-0.153137	-0.0341797	
-0.154724	-0.038147	
-0.156372	-0.0393677	
-0.158142	-0.0378418	
-0.159973	-0.0341797	
-0.161926	-0.0299072	
-0.16394	-0.0271606	
-0.165955	-0.0256348	
-0.167908	-0.0268555	
-0.169617	-0.0320435	
-0.171021	-0.0405884	
-0.17218	-0.0497437	
-0.173157	-0.057373	
-0.173889	-0.062561	
-0.174561	-0.0662231	
-0.17511	-0.0668335	
-0.175293	-0.0650024	
-0.17511	-0.0610352	
-0.174316	-0.0564575	
-0.172729	-0.0509644	
-0.170166	-0.0463867	
-0.166443	-0.0442505	
-0.161682	-0.0442505	
-0.156006	-0.0463867	
-0.149536	-0.0506592	
-0.1427	-0.0543213	
-0.135803	-0.055542	
-0.12915	-0.0540161	
-0.122925	-0.0494385	
-0.117249	-0.0436401	
-0.112122	-0.0363159	
-0.107605	-0.0280762	
-0.103638	-0.0195313	
-0.100037	-0.0125122	
-0.0969238	-0.0088501	
-0.0940552	-0.010376	
-0.0914917	-0.0180054	
-0.0891724	-0.027771	
-0.0870361	-0.0363159	
-0.0852051	-0.0402832	
-0.0834961	-0.0387573	
-0.0819092	-0.0323486	
-0.0805054	-0.020752	
-0.0791626	-0.0012207	
-0.0779419	0.0283813	
-0.0768433	0.065918	
-0.0759277	0.110168	
-0.0751343	0.158691	
-0.0744629	0.20752	
-0.0739746	0.255127	
-0.0737305	0.301514	
-0.0736084	0.342102	
-0.0737305	0.372314	
-0.0740356	0.389099	
-0.074585	0.39032	
-0.0753174	0.374756	
-0.0762939	0.342712	
-0.0776367	0.297241	
-0.0793457	0.241699	
-0.0814819	0.177002	
-0.0842285	0.10498	
-0.0874634	0.0314331	
-0.0912476	-0.0372314	
-0.095459	-0.0949097	
-0.0999756	-0.138245	
-0.104797	-0.167236	
-0.10968	-0.179749	
-0.114624	-0.175171	
-0.119385	-0.157471	
-0.123962	-0.13031	
-0.128357	-0.0958252	
-0.132568	-0.0588989	
-0.136597	-0.0262451	
-0.140442	-0.00366211	
-0.144043	0.00701904	
-0.147522	0.00823975	
-0.150879	0.00274658	
-0.154236	-0.00518799	
-0.157654	-0.0134277	
-0.161011	-0.0192261	
-0.164246	-0.0192261	
-0.167175	-0.012207	
-0.169861	0.00152588	
-0.172058	0.0180054	
-0.173645	0.0344849	
-0.174683	0.0482178	
-0.17511	0.055542	
-0.175049	0.0561523	
-0.174683	0.0491333	
-0.174255	0.0363159	
-0.174133	0.0216675	
-0.174561	0.0109863	
-0.175781	0.00732422	
-0.177734	0.00732422	
-0.180298	0.0115967	
-0.183167	0.0201416	
-0.186096	0.0296021	
-0.18866	0.0375366	
-0.190674	0.039978	
-0.191956	0.0354004	
-0.192322	0.0228882	
-0.191772	0.00610352	
-0.190552	-0.00854492	
-0.188843	-0.0170898	
-0.187073	-0.0183105	
-0.185425	-0.0115967	
-0.184082	0.00152588	
-0.183105	0.0189209	
-0.182617	0.0393677	
-0.182434	0.0598145	
-0.182495	0.0765991	
-0.182678	0.0866699	
-0.182922	0.0888062	
-0.183167	0.0857544	
-0.18335	0.0784302	
-0.183411	0.0689697	
-0.18335	0.0604248	
-0.183044	0.0549316	
-0.182678	0.0534058	
-0.182495	0.0561523	
-0.182739	0.0622559	
-0.183472	0.0717163	
-0.184998	0.0830078	
-0.187378	0.0933838	
-0.190674	0.100098	
-0.194824	0.10376	
-0.199463	0.107117	
-0.204285	0.108643	
-0.209106	0.109558	
-0.213623	0.109253	
-0.217712	0.107422	
-0.221252	0.10498	
-0.224182	0.10498	
-0.226746	0.108032	
-0.229187	0.110474	
-0.231628	0.110474	
-0.234009	0.109558	
-0.236267	0.107117	
-0.23822	0.104065	
-0.239563	0.102844	
-0.240295	0.103455	
-0.240234	0.104065	
-0.239319	0.106201	
-0.23761	0.112305	
-0.235352	0.123291	
-0.232727	0.13855	
-0.229858	0.155334	
-0.22699	0.171204	
-0.224182	0.185852	
-0.221558	0.198975	
-0.218933	0.209656	
-0.216309	0.21698	
-0.213501	0.222168	
-0.210449	0.224915	
-0.20697	0.224915	
-0.203064	0.223999	
-0.198669	0.223389	
-0.193848	0.223694	
-0.188538	0.225525	
-0.182861	0.230713	
-0.17688	0.24231	
-0.170532	0.258789	
-0.163818	0.274963	
-0.156799	0.288696	
-0.149536	0.300903	
-0.141846	0.312195	
-0.133789	0.321655	
-0.125366	0.327148	
-0.116699	0.327759	
-0.107727	0.326538	
-0.0986328	0.325928	
-0.0895386	0.327454	
-0.0805664	0.331726	
-0.0717773	0.339966	
-0.0631714	0.349731	
-0.0548096	0.360107	
-0.0466919	0.370178	
-0.0387573	0.375366	
-0.0311279	0.376282	
-0.0238647	0.375366	
-0.0170898	0.374451	
-0.0110474	0.374756	
-0.0057373	0.376282	
-0.00115967	0.378418	
0.00256348	0.379028	
0.00549316	0.379028	
0.00762939	0.380249	
0.00927734	0.378723	
0.0106201	0.370483	
0.0119019	0.357056	
0.0132446	0.341797	
0.0147705	0.326233	
0.0166016	0.311279	
0.0186768	0.297546	
0.0211182	0.28595	
0.0238037	0.275574	
0.0268555	0.265198	
0.0303955	0.253906	
0.0344849	0.24231	
0.0391846	0.229797	
0.0444336	0.216064	
0.0501709	0.200806	
0.0562134	0.182495	
0.0625	0.162048	
0.0688477	0.142212	
0.0750732	0.125122	
0.0809326	0.111084	
0.0863037	0.0970459	
0.0911255	0.0817871	
0.095459	0.0680542	
0.0992432	0.0582886	
0.102661	0.0527954	
0.105713	0.050354	
0.108459	0.0485229	
0.110962	0.0476074	
0.113281	0.0469971	
0.115417	0.045166	
0.117432	0.039978	
0.119263	0.0314331	
0.120972	0.0219727	
0.122498	0.0134277	
0.123901	0.00518799	
0.125122	-0.00335693	
0.12616	-0.010376	
0.127014	-0.0152588	
0.127747	-0.0201416	
0.128296	-0.0244141	
0.128784	-0.027771	
0.129211	-0.0305176	
0.129639	-0.0308228	
0.129944	-0.0274658	
0.130249	-0.0231934	
0.130432	-0.0192261	
0.130554	-0.0158691	
0.130676	-0.0131226	
0.130798	-0.0112915	
0.130981	-0.010376	
0.131226	-0.00915527	
0.131653	-0.00854492	
0.132263	-0.00823975	
0.133057	-0.00701904	
0.133972	-0.00457764	
0.135071	-0.00152588	
0.13623	0.0012207	
0.13739	0.00213623	
0.138489	-0.000610352	
0.139343	-0.00610352	
0.139893	-0.0134277	
0.140015	-0.0198364	
0.139465	-0.0259399	
0.138245	-0.0305176	
0.136292	-0.0323486	
0.133606	-0.0317383	
0.130371	-0.0302124	
0.126709	-0.0296021	
0.122925	-0.0292969	
0.119202	-0.0292969	
0.115723	-0.0302124	
0.112671	-0.0317383	
0.110046	-0.0320435	
0.10791	-0.0299072	
0.10614	-0.0265503	
0.104797	-0.0213623	
0.103699	-0.0158691	
0.102783	-0.010376	
0.102051	-0.00457764	
0.101379	0.0012207	
0.10083	0.00488281	
0.100342	0.00549316	
0.0999146	0.00335693	
0.0994263	-0.00152588	
0.0987549	-0.00732422	
0.0979004	-0.0125122	
0.0969238	-0.0167847	
0.0958862	-0.0210571	
0.0946655	-0.0244141	
0.0933228	-0.0274658	
0.0919189	-0.0296021	
0.0905151	-0.0299072	
0.0891113	-0.0283813	
0.0877686	-0.0271606	
0.0864868	-0.0265503	
0.0852661	-0.0250244	
0.0840454	-0.0204468	
0.0827637	-0.0134277	
0.081543	-0.00518799	
0.0802002	0.00213623	
0.0788574	0.00915527	
0.0775146	0.0167847	
0.0761719	0.0210571	
0.0747681	0.0210571	
0.0732422	0.0180054	
0.0715942	0.0119019	
0.0699463	0.00366211	
0.0682983	-0.00701904	
0.0666504	-0.0183105	
0.0650635	-0.0286865	
0.0634766	-0.0360107	
0.0619507	-0.0405884	
0.0605469	-0.045166	
0.0593262	-0.0469971	
0.0583496	-0.0439453	
0.0577393	-0.038147	
0.057373	-0.0308228	
0.0574341	-0.0241089	
0.0578613	-0.0183105	
0.05896	-0.0140381	
0.060791	-0.00976563	
0.0634766	-0.00701904	
0.0669556	-0.00671387	
0.071106	-0.00915527	
0.0759888	-0.0128174	
0.0814209	-0.0170898	
0.0870972	-0.0216675	
0.0928955	-0.0265503	
0.0983276	-0.0311279	
0.103149	-0.03479	
0.107117	-0.0375366	
0.110107	-0.0393677	
0.112061	-0.0396729	
0.112976	-0.0357056	
0.112915	-0.027771	
0.111938	-0.0177002	
0.110413	-0.00762939	
0.108521	0.000610352	
0.106628	0.00701904	
0.104797	0.0112915	
0.103271	0.010376	
0.102112	0.00488281	
0.101379	-0.00274658	
0.101318	-0.0100708	
0.101868	-0.0161743	
0.10321	-0.0192261	
0.105164	-0.0198364	
0.107666	-0.0189209	
0.110718	-0.0183105	
0.114197	-0.0177002	
0.117981	-0.0177002	
0.121765	-0.0201416	
0.125488	-0.0247192	
0.128906	-0.0311279	
0.131897	-0.0372314	
0.134521	-0.039978	
0.136719	-0.0372314	
0.138489	-0.0305176	
0.140015	-0.0228882	
0.141296	-0.0177002	
0.142456	-0.0158691	
0.143555	-0.0167847	
0.144348	-0.0201416	
0.144592	-0.0274658	
0.144226	-0.038147	
0.143066	-0.0500488	
0.141174	-0.0601196	
0.138428	-0.065918	
0.13501	-0.0674438	
0.13092	-0.0653076	
0.126587	-0.0592041	
0.122131	-0.0506592	
0.117737	-0.0430298	
0.113464	-0.0366211	
0.109253	-0.0308228	
0.10498	-0.0256348	
0.100525	-0.0213623	
0.0957642	-0.0183105	
0.0905151	-0.0161743	
0.0848999	-0.015564	
0.0789185	-0.0164795	
0.0726929	-0.0192261	
0.0664673	-0.0222778	
0.0603638	-0.0250244	
0.0544434	-0.0265503	
0.0488892	-0.0265503	
0.0436401	-0.0253296	
0.0388184	-0.0241089	
0.0343628	-0.022583	
0.0302124	-0.0216675	
0.0263672	-0.0219727	
0.0227661	-0.022583	
0.0193481	-0.0228882	
0.0160522	-0.0219727	
0.0127563	-0.0186157	
0.00946045	-0.0143433	
0.00604248	-0.0106812	
0.00250244	-0.00579834	
-0.0012207	0.000610352	
-0.00512695	0.00335693	
-0.00897217	0.000610352	
-0.0128174	-0.00762939	
-0.0165405	-0.0201416	
-0.0200195	-0.0341797	
-0.0233765	-0.0491333	
-0.0263672	-0.0643921	
-0.0289917	-0.0778198	
-0.031311	-0.0863647	
-0.0333252	-0.0878906	
-0.0350952	-0.0839233	
-0.0366211	-0.0759888	
-0.0380859	-0.0646973	
-0.0395508	-0.0512695	
-0.0410156	-0.0378418	
-0.0423584	-0.0250244	
-0.0435181	-0.0146484	
-0.0444946	-0.00793457	
-0.0450439	-0.00610352	
-0.0452271	-0.00762939	
-0.0448608	-0.0100708	
-0.0439453	-0.0131226	
-0.0425415	-0.015564	
-0.0407104	-0.0152588	
-0.0387573	-0.0125122	
-0.0369263	-0.00915527	
-0.0352173	-0.00579834	
-0.0338745	-0.00305176	
-0.0328369	-0.0012207	
-0.0320435	0.000305176	
-0.0315552	0	
-0.031189	-0.00213623	
-0.0308838	-0.00366211	
-0.0306396	-0.00244141	
-0.0302734	0.0012207	
-0.0299072	0.00579834	
-0.0294189	0.0106812	
-0.0290527	0.0149536	
-0.0289917	0.017395	
-0.0293579	0.0180054	
-0.0302734	0.0164795	
-0.0318604	0.012207	
-0.0341797	0.00518799	
-0.0372314	-0.00274658	
-0.0408936	-0.00762939	
-0.045105	-0.00946045	
-0.0496216	-0.0088501	
-0.0542603	-0.00762939	
-0.0588379	-0.00671387	
-0.0632935	-0.00549316	
-0.0674438	-0.00396729	
-0.0713501	-0.00427246	
-0.0750732	-0.00671387	
-0.0786743	-0.012207	
-0.0820313	-0.0213623	
-0.0852661	-0.0314331	
-0.0882568	-0.0387573	
-0.0910645	-0.0418091	
-0.0936279	-0.0421143	
-0.0959473	-0.0396729	
-0.0979614	-0.0350952	
-0.0997925	-0.0286865	
-0.101318	-0.0201416	
-0.102661	-0.0112915	
-0.103882	-0.00579834	
-0.10498	-0.00518799	
-0.106018	-0.00915527	
-0.106995	-0.0161743	
-0.10791	-0.0244141	
-0.108765	-0.0344849	
-0.10968	-0.0469971	
-0.110596	-0.0588989	
-0.11145	-0.0680542	
-0.112305	-0.072937	
-0.113037	-0.072937	
-0.11377	-0.0701904	
-0.114502	-0.0662231	
-0.115295	-0.0622559	
-0.115967	-0.057373	
-0.116455	-0.0515747	
-0.116516	-0.0463867	
-0.116028	-0.0448608	
-0.114807	-0.0476074	
-0.112915	-0.0524902	
-0.110168	-0.0588989	
-0.10675	-0.0640869	
-0.102844	-0.0656128	
-0.0986938	-0.0634766	
-0.0946655	-0.0585938	
-0.0910645	-0.0509644	
-0.0881348	-0.0408936	
-0.0859375	-0.0302124	
-0.0844727	-0.0204468	
-0.0836792	-0.0134277	
-0.083374	-0.00915527	
-0.083374	-0.00488281	
-0.0834961	0.00549316	
-0.0836792	0.0256348	
-0.0838623	0.0570679	
-0.0839844	0.101318	
-0.0841675	0.158386	
-0.0846558	0.223694	
-0.0855713	0.292053	
-0.0869751	0.35675	
-0.0889282	0.409241	
-0.0913696	0.44281	
-0.0942383	0.453491	
-0.0975342	0.440063	
-0.101135	0.405579	
-0.104858	0.353394	
-0.108398	0.288391	
-0.111755	0.215149	
-0.114929	0.137634	
-0.117859	0.0601196	
-0.120667	-0.0119019	
-0.123413	-0.0735474	
-0.126221	-0.123291	
-0.12915	-0.157166	
-0.132141	-0.17395	
-0.135193	-0.174255	
-0.138306	-0.161133	
-0.141479	-0.138245	
-0.144592	-0.111084	
-0.147583	-0.083313	
-0.15033	-0.0570679	
-0.152649	-0.0357056	
-0.154358	-0.0219727	
-0.155518	-0.0152588	
-0.15625	-0.012207	
-0.156616	-0.00915527	
-0.156677	-0.00549316	
-0.156616	-0.00274658	
-0.156555	-0.00213623	
-0.156677	-0.00274658	
-0.157166	-0.00396729	
-0.15802	-0.00518799	
-0.159241	-0.00579834	
-0.160706	-0.00671387	
-0.162354	-0.00671387	
-0.164063	-0.00244141	
-0.16571	0.00549316	
-0.167114	0.0149536	
-0.16803	0.0241089	
-0.168396	0.0305176	
-0.16803	0.032959	
-0.166931	0.0311279	
-0.1651	0.0265503	
-0.16272	0.020752	
-0.159851	0.0140381	
-0.156799	0.00823975	
-0.15387	0.00518799	
-0.151123	0.00610352	
-0.148804	0.00915527	
-0.146973	0.0134277	
-0.145569	0.0177002	
-0.144592	0.020752	
-0.14386	0.0238037	
-0.14325	0.0274658	
-0.1427	0.0305176	
-0.142273	0.0357056	
-0.141846	0.0430298	
-0.141541	0.0506592	
-0.141296	0.0582886	
-0.141052	0.0662231	
-0.140808	0.072937	
-0.140564	0.0753784	
-0.140137	0.0720215	
-0.139526	0.0646973	
-0.138489	0.0549316	
-0.137146	0.0448608	
-0.135437	0.0360107	
-0.133423	0.0296021	
-0.131165	0.0265503	
-0.128784	0.0292969	
-0.126404	0.0372314	
-0.124207	0.0488281	
-0.122253	0.0616455	
-0.120544	0.0744629	
-0.119141	0.0872803	
-0.118042	0.0973511	
-0.11731	0.102539	
-0.117188	0.105591	
-0.117676	0.106201	
-0.118774	0.10376	
-0.120544	0.0997925	
-0.123047	0.0979614	
-0.126221	0.0994873	
-0.129944	0.101624	
-0.13385	0.103149	
-0.137817	0.103455	
-0.141663	0.103455	
-0.145203	0.10498	
-0.148376	0.107117	
-0.151062	0.109863	
-0.153381	0.113831	
-0.155334	0.119324	
-0.157104	0.128479	
-0.158569	0.142822	
-0.159851	0.160828	
-0.160889	0.178223	
-0.161865	0.191956	
-0.162781	0.2005	
-0.163635	0.204163	
-0.16449	0.204468	
-0.165222	0.202942	
-0.165894	0.201111	
-0.166321	0.202332	
-0.166321	0.206299	
-0.165466	0.211792	
-0.163696	0.217896	
-0.160889	0.223999	
-0.156921	0.228577	
-0.151855	0.230713	
-0.145874	0.230103	
-0.139221	0.227661	
-0.13208	0.226135	
-0.124756	0.227966	
-0.117432	0.234375	
-0.110291	0.245361	
-0.103455	0.26001	
-0.0968018	0.2771	
-0.0903931	0.296326	
-0.0840454	0.315247	
-0.0775757	0.331726	
-0.0709229	0.343628	
-0.0640259	0.351868	
-0.0569458	0.357361	
-0.0496826	0.359802	
-0.0426025	0.359802	
-0.0357666	0.357666	
-0.0296021	0.352478	
-0.0241089	0.344543	
-0.0195313	0.335999	
-0.0159302	0.329895	
-0.0131836	0.327759	
-0.0111084	0.328064	
-0.00946045	0.329895	
-0.00762939	0.332336	
-0.00537109	0.333557	
-0.00238037	0.332031	
0.00140381	0.326538	
0.00610352	0.316772	
0.0117188	0.305176	
0.0180054	0.292053	
0.0249023	0.27832	
0.0321045	0.265808	
0.0393066	0.256958	
0.0463257	0.252686	
0.0528564	0.249939	
0.0587769	0.245972	
0.0640869	0.238647	
0.0687866	0.22644	
0.0727539	0.208435	
0.0758667	0.186768	
0.078186	0.162964	
0.0797729	0.140076	
0.0805664	0.118713	
0.0807495	0.0994873	
0.0803833	0.0836182	
0.0795898	0.0720215	
0.0783691	0.0637817	
0.0771484	0.0576782	
0.0760498	0.0521851	
0.0754395	0.0473022	
0.0754395	0.0427246	
0.0761108	0.0393677	
0.0775757	0.0363159	
0.0797119	0.0332642	
0.0824585	0.0311279	
0.0856934	0.0283813	
0.0891724	0.0228882	
0.0927734	0.0134277	
0.0961914	0.00457764	
0.0993652	-0.00244141	
0.102112	-0.00946045	
0.104431	-0.0158691	
0.106323	-0.0195313	
0.107849	-0.0195313	
0.109131	-0.0183105	
0.110229	-0.0180054	
0.111206	-0.0204468	
0.112244	-0.0253296	
0.113342	-0.0323486	
0.114258	-0.0387573	
0.114807	-0.0445557	
0.114929	-0.0482178	
0.114441	-0.0488281	
0.113342	-0.0454712	
0.11145	-0.0387573	
0.108948	-0.0302124	
0.105896	-0.020752	
0.102539	-0.0128174	
0.0992432	-0.00854492	
0.0961914	-0.0088501	
0.0934448	-0.012207	
0.0911865	-0.0189209	
0.0892944	-0.0283813	
0.0876465	-0.0378418	
0.0861206	-0.0466919	
0.0846558	-0.0543213	
0.0830078	-0.0595093	
0.0812988	-0.0619507	
0.0793457	-0.0616455	
0.0773315	-0.0588989	
0.0753174	-0.0534058	
0.0733643	-0.0448608	
0.0715942	-0.0332642	
0.0700684	-0.0216675	
0.0687256	-0.0125122	
0.067688	-0.00854492	
0.0669556	-0.0088501	
0.0666504	-0.0100708	
0.0668945	-0.0125122	
0.067627	-0.0167847	
0.0688477	-0.022583	
0.0706177	-0.0274658	
0.0728149	-0.0311279	
0.0751343	-0.0335693	
0.0772705	-0.03479	
0.0790405	-0.0357056	
0.0802612	-0.0384521	
0.0807495	-0.0427246	
0.0804443	-0.0488281	
0.0794067	-0.0540161	
0.0778809	-0.0564575	
0.0761719	-0.0561523	
0.0744629	-0.0543213	
0.072998	-0.0509644	
0.0718384	-0.0448608	
0.0709229	-0.0363159	
0.0702515	-0.0280762	
0.0697021	-0.0204468	
0.0692139	-0.0140381	
0.0685425	-0.00854492	
0.0678101	-0.00396729	
0.0668335	-0.000305176	
0.0657349	0.00274658	
0.0645142	0.00366211	
0.0633545	0.00183105	
0.0621338	-0.00457764	
0.0609741	-0.0140381	
0.0598755	-0.0231934	
0.0588379	-0.0314331	
0.0578613	-0.039978	
0.0569458	-0.0469971	
0.0559692	-0.0494385	
0.0549927	-0.0460815	
0.0539551	-0.0378418	
0.0529175	-0.0271606	
0.052002	-0.0177002	
0.0512695	-0.0100708	
0.0508423	-0.00427246	
0.0507202	-0.00213623	
0.0509033	-0.00457764	
0.0515137	-0.0119019	
0.0525513	-0.0228882	
0.0540161	-0.0357056	
0.0557861	-0.0494385	
0.0575562	-0.0610352	
0.0592651	-0.0674438	
0.060791	-0.0695801	
0.0620728	-0.0704956	
0.0630493	-0.0695801	
0.0636597	-0.065918	
0.0639648	-0.0585938	
0.0639648	-0.0494385	
0.0638428	-0.0415039	
0.0635376	-0.0375366	
0.0632324	-0.0366211	
0.0631104	-0.0354004	
0.0632324	-0.032959	
0.0638428	-0.0299072	
0.0651245	-0.0268555	
0.0672607	-0.0244141	
0.0703125	-0.022583	
0.0742188	-0.0210571	
0.0788574	-0.0177002	
0.0841064	-0.0143433	
0.0897217	-0.0140381	
0.0953369	-0.017395	
0.100708	-0.0231934	
0.105591	-0.027771	
0.109802	-0.0308228	
0.113281	-0.0332642	
0.116028	-0.0335693	
0.118286	-0.0335693	
0.120056	-0.032959	
0.121582	-0.0323486	
0.122925	-0.032959	
0.124084	-0.0354004	
0.125	-0.0396729	
0.125793	-0.0466919	
0.126465	-0.0558472	
0.126892	-0.0646973	
0.127075	-0.072937	
0.127014	-0.0796509	
0.12677	-0.0836182	
0.126282	-0.0839233	
0.125671	-0.0793457	
0.124939	-0.0723267	
0.123962	-0.0646973	
0.122498	-0.057373	
0.120422	-0.0506592	
0.117676	-0.0460815	
0.114136	-0.0427246	
0.109741	-0.0405884	
0.104675	-0.0402832	
0.098938	-0.0415039	
0.0928955	-0.0439453	
0.086731	-0.0469971	
0.0808105	-0.0485229	
0.0753174	-0.0479126	
0.0702515	-0.043335	
0.0657349	-0.0357056	
0.0616455	-0.0280762	
0.0578003	-0.020752	
0.0540771	-0.0131226	
0.050415	-0.00518799	
0.046814	0.00152588	
0.043457	0.00427246	
0.0401611	0.0012207	
0.0369873	-0.00610352	
0.0341187	-0.0149536	
0.0314331	-0.0234985	
0.0289917	-0.0308228	
0.0266724	-0.0354004	
0.0244141	-0.0363159	
0.0220337	-0.0320435	
0.0195313	-0.0241089	
0.0169678	-0.0161743	
0.0143433	-0.00976563	
0.0117188	-0.00579834	
0.00915527	-0.00518799	
0.00683594	-0.00701904	
0.00469971	-0.00976563	
0.00268555	-0.0128174	
0.000732422	-0.0158691	
-0.000976563	-0.0183105	
-0.00231934	-0.0192261	
-0.0032959	-0.0189209	
-0.00408936	-0.0180054	
-0.00457764	-0.0180054	
-0.00500488	-0.0210571	
-0.00531006	-0.0268555	
-0.00567627	-0.03479	
-0.00628662	-0.0439453	
-0.00732422	-0.0509644	
-0.00878906	-0.0558472	
-0.0107422	-0.0588989	
-0.0131226	-0.0604248	
-0.015686	-0.0619507	
-0.0183716	-0.0634766	
-0.0209961	-0.0643921	
-0.0234985	-0.0656128	
-0.0258789	-0.0674438	
-0.0281372	-0.0692749	
-0.0302124	-0.0701904	
-0.0321655	-0.0701904	
-0.0341187	-0.0695801	
-0.0360718	-0.0689697	
-0.0380249	-0.0668335	
-0.0400391	-0.0634766	
-0.0419312	-0.0601196	
-0.0438843	-0.0570679	
-0.0458984	-0.0540161	
-0.0479736	-0.0506592	
-0.0501099	-0.0476074	
-0.0522461	-0.0448608	
-0.0540771	-0.0421143	
-0.055481	-0.0390625	
-0.0561523	-0.0369263	
-0.0560913	-0.0363159	
-0.0552368	-0.0378418	
-0.0535278	-0.0402832	
-0.0511475	-0.045166	
-0.0482178	-0.0521851	
-0.0450439	-0.0610352	
-0.0419922	-0.0714111	
-0.0393066	-0.0799561	
-0.0371704	-0.0869751	
-0.0358276	-0.0933838	
-0.0354004	-0.0958252	
-0.0357666	-0.0930786	
-0.0369873	-0.0854492	
-0.0390015	-0.0732422	
-0.041626	-0.0579834	
-0.0447388	-0.0411987	
-0.0481567	-0.0280762	
-0.0517578	-0.0195313	
-0.0552979	-0.0131226	
-0.0587158	-0.00762939	
-0.0618896	-0.00213623	
-0.0646973	0.00671387	
-0.0670776	0.0234985	
-0.0692139	0.050354	
-0.0709229	0.0900269	
-0.0720825	0.140991	
-0.0727539	0.198669	
-0.0727539	0.256958	
-0.0720825	0.306396	
-0.0708008	0.341492	
-0.0690308	0.358276	
-0.0669556	0.355835	
-0.0647583	0.332031	
-0.0629272	0.287476	
-0.0617676	0.227051	
-0.0613403	0.156555	
-0.0618286	0.0811768	
-0.0632324	0.00579834	
-0.0653687	-0.0646973	
-0.0678101	-0.126953	
-0.0702515	-0.177917	
-0.0723267	-0.214233	
-0.0737305	-0.233154	
-0.0742798	-0.234375	
-0.0739746	-0.219421	
-0.072876	-0.190735	
-0.0712891	-0.152588	
-0.0692749	-0.110779	
-0.0671387	-0.0714111	
-0.0650635	-0.0387573	
-0.0630493	-0.0158691	
-0.0612183	-0.00396729	
-0.0595703	-0.000915527	
-0.0580444	-0.00457764	
-0.0567017	-0.0131226	
-0.055481	-0.0244141	
-0.0543213	-0.0341797	
-0.0533447	-0.038147	
-0.0526733	-0.0357056	
-0.0523071	-0.027771	
-0.0524902	-0.0186157	
-0.0532837	-0.0100708	
-0.0547485	-0.00213623	
-0.0569458	0.00305176	
-0.0599365	0.00488281	
-0.0636597	0.00518799	
-0.0679932	0.00427246	
-0.0727539	0.000610352	
-0.0777588	-0.00518799	
-0.0828247	-0.0115967	
-0.0877686	-0.017395	
-0.0924683	-0.0210571	
-0.0967407	-0.0222778	
-0.100586	-0.0222778	
-0.104126	-0.0210571	
-0.107483	-0.0186157	
-0.110718	-0.0161743	
-0.114014	-0.0140381	
-0.11731	-0.010376	
-0.120667	-0.00518799	
-0.124084	0.000915527	
-0.127502	0.00579834	
-0.130798	0.00854492	
-0.133972	0.00946045	
-0.136902	0.00946045	
-0.139648	0.00823975	
-0.142151	0.00701904	
-0.14447	0.00579834	
-0.146606	0.00488281	
-0.148743	0.00701904	
-0.150757	0.0119019	
-0.15271	0.0201416	
-0.154602	0.0311279	
-0.156494	0.0439453	
-0.158386	0.0567627	
-0.160278	0.0680542	
-0.162231	0.0769043	
-0.164307	0.0817871	
-0.166504	0.0811768	
-0.168762	0.0750732	
-0.171082	0.0662231	
-0.173401	0.0558472	
-0.175598	0.0460815	
-0.177673	0.0384521	
-0.179565	0.0335693	
-0.181213	0.0317383	
-0.182495	0.0338745	
-0.183594	0.0387573	
-0.184448	0.0448608	
-0.185059	0.0521851	
-0.185486	0.0619507	
-0.185791	0.0720215	
-0.186035	0.0796509	
-0.186279	0.0848389	
-0.186646	0.0891113	
-0.187012	0.0918579	
-0.187561	0.0930786	
-0.188232	0.0946045	
-0.189026	0.0970459	
-0.189941	0.100098	
-0.190796	0.101929	
-0.191528	0.10376	
-0.192078	0.106201	
-0.192505	0.109558	
-0.192627	0.117188	
-0.192566	0.129089	
-0.192322	0.142517	
-0.191895	0.154724	
-0.191284	0.167542	
-0.190674	0.182495	
-0.18988	0.196838	
-0.189087	0.20874	
-0.188232	0.218506	
-0.187317	0.22583	
-0.186157	0.230103	
-0.184692	0.231934	
-0.182861	0.233154	
-0.180725	0.235901	
-0.178284	0.241394	
-0.175476	0.248718	
-0.172302	0.256958	
-0.168823	0.265503	
-0.165039	0.274658	
-0.16095	0.284729	
-0.156494	0.293884	
-0.151733	0.299988	
-0.146545	0.30365	
-0.141113	0.305481	
-0.135376	0.304871	
-0.129578	0.302429	
-0.123657	0.298462	
-0.117737	0.293579	
-0.111938	0.289001	
-0.106201	0.28656	
-0.100464	0.287781	
-0.0947876	0.292358	
-0.0890503	0.299988	
-0.083252	0.31189	
-0.0773315	0.326233	
-0.0713501	0.339355	
-0.0653076	0.348511	
-0.0592041	0.351868	
-0.0531616	0.351563	
-0.0471802	0.346069	
-0.0412598	0.333862	
-0.0355225	0.314026	
-0.0299683	0.289612	
-0.0244751	0.264282	
-0.019165	0.241699	
-0.013916	0.222473	
-0.00891113	0.207214	
-0.00408936	0.194702	
0.000671387	0.184021	
0.00518799	0.174866	
0.00939941	0.168152	
0.0132446	0.161438	
0.0168457	0.152588	
0.0203857	0.13916	
0.0240479	0.122986	
0.0280151	0.10437	
0.0322266	0.0857544	
0.0367432	0.0686646	
0.0414429	0.0531006	
0.0460815	0.0390625	
0.0504761	0.0265503	
0.0543213	0.0170898	
0.057373	0.010376	
0.0594482	0.00427246	
0.0605469	-0.0012207	
0.0608521	-0.00823975	
0.0606079	-0.0170898	
0.0600586	-0.027771	
0.0594482	-0.0384521	
0.05896	-0.0485229	
0.0585938	-0.057373	
0.0583496	-0.0653076	
0.0581055	-0.0708008	
0.0577393	-0.0726318	
0.057312	-0.0695801	
0.0566406	-0.0650024	
0.0557251	-0.06073	
0.0546265	-0.0540161	
0.0533447	-0.0457764	
0.0518799	-0.038147	
0.050293	-0.0335693	
0.0487671	-0.0314331	
0.0473022	-0.0299072	
0.0460205	-0.0280762	
0.0449829	-0.0262451	
0.0443115	-0.0268555	
0.0439453	-0.0308228	
0.0439453	-0.0378418	
0.0441895	-0.0445557	
0.0446777	-0.0500488	
0.0452881	-0.0549316	
0.0458374	-0.0595093	
0.0462036	-0.0637817	
0.0464478	-0.0674438	
0.0466309	-0.0698853	
0.046875	-0.0708008	
0.0472412	-0.0708008	
0.0479126	-0.0720215	
0.0488281	-0.0753784	
0.0501099	-0.0802612	
0.0516968	-0.0842285	
0.0535278	-0.0875854	
0.055542	-0.088501	
0.0576172	-0.0857544	
0.0596313	-0.0802612	
0.0615845	-0.0726318	
0.0633545	-0.0637817	
0.0650635	-0.0543213	
0.0665894	-0.0463867	
0.0679932	-0.0396729	
0.0693359	-0.03479	
0.0705566	-0.032959	
0.0717773	-0.0341797	
0.072876	-0.0378418	
0.0740356	-0.0415039	
0.0750732	-0.0445557	
0.0761108	-0.0473022	
0.0770264	-0.0491333	
0.0777588	-0.0515747	
0.0784302	-0.0537109	
0.0790405	-0.0552368	
0.0797729	-0.0549316	
0.0807495	-0.0521851	
0.0817871	-0.0491333	
0.0830078	-0.0463867	
0.0842285	-0.0448608	
0.0854492	-0.0436401	
0.086731	-0.0424194	
0.0877075	-0.0411987	
0.0883179	-0.0393677	
0.0883789	-0.0375366	
0.0878296	-0.0354004	
0.0866699	-0.0320435	
0.085022	-0.0283813	
0.0830688	-0.0268555	
0.0809326	-0.027771	
0.0786133	-0.0296021	
0.0764771	-0.032959	
0.074585	-0.0384521	
0.072937	-0.0448608	
0.0715942	-0.0509644	
0.0704956	-0.0546265	
0.069458	-0.0567627	
0.0682373	-0.0582886	
0.0665283	-0.0592041	
0.064209	-0.0592041	
0.0610352	-0.0582886	
0.0570068	-0.057373	
0.0522461	-0.0576782	
0.046814	-0.0585938	
0.0410156	-0.06073	
0.0350952	-0.0619507	
0.029541	-0.0604248	
0.0247803	-0.057373	
0.0209961	-0.0531006	
0.0183716	-0.0488281	
0.0168457	-0.0463867	
0.0164185	-0.0460815	
0.0170898	-0.0466919	
0.0186768	-0.0466919	
0.020813	-0.0463867	
0.0233765	-0.0482178	
0.026001	-0.0500488	
0.0284424	-0.0509644	
0.0306396	-0.0506592	
0.0326538	-0.0485229	
0.0343628	-0.0448608	
0.0358887	-0.0411987	
0.0371094	-0.0378418	
0.038147	-0.0344849	
0.0391235	-0.0311279	
0.039917	-0.0299072	
0.0407104	-0.0314331	
0.0413818	-0.0354004	
0.0418701	-0.0408936	
0.0419312	-0.0473022	
0.0415039	-0.055542	
0.0404663	-0.0646973	
0.0388794	-0.0714111	
0.036499	-0.0759888	
0.0334473	-0.0778198	
0.0297852	-0.0759888	
0.0255737	-0.0708008	
0.0211792	-0.0628662	
0.0166626	-0.0546265	
0.012207	-0.0476074	
0.00787354	-0.0418091	
0.00378418	-0.0384521	
-6.10352E-005-0.0387573	
-0.00366211	-0.0430298	
-0.00708008	-0.0500488	
-0.010376	-0.057373	
-0.0133667	-0.0646973	
-0.0161133	-0.071106	
-0.0183716	-0.0750732	
-0.0203247	-0.0765991	
-0.0218506	-0.0769043	
-0.0229492	-0.0756836	
-0.0234375	-0.0738525	
-0.0234375	-0.0732422	
-0.0228882	-0.0741577	
-0.0219727	-0.0747681	
-0.020752	-0.0738525	
-0.019165	-0.0714111	
-0.0174561	-0.067749	
-0.015564	-0.0628662	
-0.0134888	-0.0561523	
-0.0114746	-0.0457764	
-0.00952148	-0.0302124	
-0.00775146	-0.0140381	
-0.00616455	-0.00183105	
-0.00476074	0.00457764	
-0.00354004	0.00640869	
-0.00256348	0.00488281	
-0.00189209	0	
-0.00146484	-0.00854492	
-0.00146484	-0.0201416	
-0.00177002	-0.0314331	
-0.00250244	-0.0408936	
-0.003479	-0.0460815	
-0.00476074	-0.0466919	
-0.00622559	-0.0430298	
-0.0078125	-0.0363159	
-0.00939941	-0.0271606	
-0.0110474	-0.0170898	
-0.0126953	-0.00793457	
-0.0142822	-0.00152588	
-0.0158081	0.000305176	
-0.017334	-0.00427246	
-0.0187988	-0.0131226	
-0.0201416	-0.0241089	
-0.0211182	-0.0363159	
-0.0218506	-0.0500488	
-0.0223389	-0.0634766	
-0.022522	-0.0750732	
-0.022522	-0.0842285	
-0.0222778	-0.0888062	
-0.0221558	-0.088501	
-0.0222168	-0.0842285	
-0.022644	-0.0778198	
-0.0236816	-0.0701904	
-0.0253906	-0.06073	
-0.027771	-0.050354	
-0.0307617	-0.0411987	
-0.0343018	-0.03479	
-0.0385132	-0.0305176	
-0.0432739	-0.0286865	
-0.0485229	-0.0296021	
-0.0540161	-0.0332642	
-0.0596313	-0.0402832	
-0.0652466	-0.0482178	
-0.0706787	-0.0552368	
-0.0759277	-0.0616455	
-0.0808105	-0.0683594	
-0.0852661	-0.0738525	
-0.0892334	-0.0778198	
-0.0927124	-0.0814819	
-0.0958252	-0.083313	
-0.0986328	-0.0836182	
-0.101257	-0.0820923	
-0.103821	-0.0790405	
-0.106323	-0.0747681	
-0.109009	-0.071106	
-0.111694	-0.0692749	
-0.114502	-0.0695801	
-0.11731	-0.071106	
-0.120056	-0.0738525	
-0.12262	-0.0769043	
-0.125	-0.0793457	
-0.127258	-0.0790405	
-0.129333	-0.0753784	
-0.131287	-0.0701904	
-0.133179	-0.0622559	
-0.135132	-0.0518799	
-0.137146	-0.0418091	
-0.139282	-0.0360107	
-0.141418	-0.0360107	
-0.143555	-0.0396729	
-0.145569	-0.0427246	
-0.147461	-0.0430298	
-0.149231	-0.0378418	
-0.150635	-0.0228882	
-0.151917	0.00579834	
-0.152893	0.0479126	
-0.153564	0.0991821	
-0.153931	0.15625	
-0.154053	0.216064	
-0.153748	0.274658	
-0.153198	0.322876	
-0.152405	0.354614	
-0.151611	0.368958	
-0.150879	0.365906	
-0.15033	0.346069	
-0.150024	0.31189	
-0.150146	0.266113	
-0.150696	0.211792	
-0.151428	0.150452	
-0.152283	0.0836182	
-0.153259	0.0161743	
-0.154236	-0.0473022	
-0.155151	-0.102539	
-0.156006	-0.14679	
-0.156799	-0.177612	
-0.157715	-0.194397	
-0.158691	-0.197144	
-0.159912	-0.188293	
-0.161377	-0.170288	
-0.162903	-0.145874	
-0.164612	-0.118103	
-0.166321	-0.0912476	
-0.167969	-0.067749	
-0.169495	-0.0500488	
-0.170776	-0.0387573	
-0.171814	-0.0314331	
-0.172607	-0.0259399	
-0.173157	-0.0231934	
-0.173462	-0.0222778	
-0.173584	-0.0198364	
-0.173645	-0.0167847	
-0.173767	-0.015564	
-0.173889	-0.0152588	
-0.174011	-0.0152588	
-0.17395	-0.0158691	
-0.173706	-0.0192261	
-0.173279	-0.0256348	
-0.172607	-0.0332642	
-0.171753	-0.0405884	
-0.170776	-0.0454712	
-0.1698	-0.0479126	
-0.168884	-0.045166	
-0.168152	-0.0366211	
-0.167786	-0.0238037	
-0.167786	-0.00823975	
-0.168091	0.00549316	
-0.16864	0.0134277	
-0.16925	0.0146484	
-0.169861	0.00946045	
-0.17041	0.0012207	
-0.170898	-0.00671387	
-0.171265	-0.0131226	
-0.171509	-0.0161743	
-0.171753	-0.0146484	
-0.171997	-0.0088501	
-0.172302	0.000610352	
-0.172607	0.012207	
-0.172974	0.0213623	
-0.173401	0.0265503	
-0.174072	0.0283813	
-0.174744	0.0268555	
-0.175537	0.0216675	
-0.17627	0.0146484	
-0.177002	0.0100708	
-0.177551	0.00946045	
-0.177917	0.012207	
-0.178162	0.0180054	
-0.178284	0.0265503	
-0.178345	0.03479	
-0.178284	0.0421143	
-0.178284	0.0460815	
-0.178345	0.0457764	
-0.178406	0.0418091	
-0.178528	0.0354004	
-0.178406	0.0280762	
-0.17804	0.020752	
-0.177368	0.015564	
-0.176208	0.015564	
-0.174561	0.0216675	
-0.172485	0.0332642	
-0.170105	0.0500488	
-0.167542	0.0668335	
-0.164978	0.0814819	
-0.162537	0.0930786	
-0.1604	0.100098	
-0.158569	0.101929	
-0.157166	0.100403	
-0.156128	0.0973511	
-0.155396	0.0930786	
-0.154907	0.0891113	
-0.154297	0.0878906	
-0.153442	0.0909424	
-0.152161	0.0973511	
-0.150208	0.105286	
-0.147522	0.114136	
-0.144165	0.123291	
-0.140076	0.131531	
-0.135437	0.139465	
-0.130432	0.147705	
-0.125122	0.155334	
-0.119812	0.162354	
-0.114624	0.167847	
-0.109558	0.171204	
-0.104675	0.171814	
-0.0997925	0.170593	
-0.0949707	0.168457	
-0.0901489	0.166321	
-0.0852661	0.165405	
-0.0801392	0.166931	
-0.0749512	0.172119	
-0.0698242	0.180969	
-0.0648193	0.193481	
-0.0602417	0.209045	
-0.0562134	0.227356	
-0.0529785	0.248108	
-0.0505371	0.268555	
-0.0487671	0.28595	
-0.0476685	0.297852	
-0.0469971	0.305786	
-0.0465698	0.310059	
-0.0460815	0.310364	
-0.0454712	0.307007	
-0.0444946	0.302124	
-0.0430298	0.296021	
-0.0411987	0.289307	
-0.0389404	0.283508	
-0.0362549	0.280151	
-0.0331421	0.280457	
-0.02948	0.284424	
-0.0250244	0.291138	
-0.0198364	0.297852	
-0.013916	0.305481	
-0.00732422	0.314026	
-6.10352E-0050.321655	
0.00762939	0.325623	
0.015625	0.325012	
0.0236206	0.319824	
0.031311	0.309143	
0.0386353	0.295105	
0.0454102	0.280762	
0.0515137	0.264893	
0.0566406	0.245972	
0.0609131	0.22644	
0.064209	0.209351	
0.0665283	0.194702	
0.0680542	0.178528	
0.0687866	0.161133	
0.0689087	0.144043	
0.0687256	0.127563	
0.0684204	0.11261	
0.0680542	0.0976563	
0.0678711	0.0836182	
0.0678101	0.0704956	
0.0679932	0.0592041	
0.0682983	0.050354	
0.0686646	0.0436401	
0.0690308	0.0363159	
0.0693359	0.0259399	
0.069397	0.0137329	
0.0692139	0.00213623	
0.0687866	-0.00732422	
0.0681152	-0.0146484	
0.0671387	-0.0213623	
0.06604	-0.0271606	
0.0647583	-0.0302124	
0.0635376	-0.0302124	
0.062561	-0.0283813	
0.0618286	-0.0259399	
0.0614624	-0.0256348	
0.0615845	-0.0283813	
0.0621948	-0.0323486	
0.0631714	-0.0366211	
0.0645142	-0.0415039	
0.0661011	-0.0479126	
0.0678711	-0.0534058	
0.0696411	-0.057373	
0.071228	-0.0579834	
0.0726318	-0.0546265	
0.0737305	-0.0512695	
0.0744629	-0.0500488	
0.0748901	-0.050354	
0.0749512	-0.0515747	
0.0749512	-0.0540161	
0.0751343	-0.0576782	
0.0757446	-0.0634766	
0.0769043	-0.0695801	
0.0785522	-0.0747681	
0.0806274	-0.0793457	
0.0830688	-0.083313	
0.0855713	-0.0863647	
0.0878906	-0.0872803	
0.0897217	-0.0857544	
0.0908203	-0.0820923	
0.0911255	-0.0772095	
0.0908203	-0.0732422	
0.0900269	-0.0692749	
0.0889282	-0.0640869	
0.0878906	-0.0585938	
0.0870972	-0.0543213	
0.0866089	-0.0524902	
0.0864868	-0.0521851	
0.0866699	-0.0512695	
0.0869751	-0.0512695	
0.0874023	-0.0527954	
0.0877686	-0.055542	
0.0880737	-0.0588989	
0.0882568	-0.0619507	
0.088562	-0.0643921	
0.0892334	-0.0662231	
0.0903931	-0.0680542	
0.0922852	-0.0704956	
0.0949097	-0.0723267	
0.0983276	-0.0738525	
0.102417	-0.0738525	
0.106995	-0.0726318	
0.111816	-0.071106	
0.116577	-0.0704956	
0.121094	-0.071106	
0.125183	-0.0720215	
0.128723	-0.0723267	
0.131653	-0.0701904	
0.134216	-0.065918	
0.136353	-0.06073	
0.138245	-0.0561523	
0.139954	-0.0543213	
0.141418	-0.0546265	
0.142883	-0.0534058	
0.144165	-0.050354	
0.145325	-0.0466919	
0.146301	-0.0439453	
0.147156	-0.0411987	
0.147949	-0.0372314	
0.148804	-0.0323486	
0.149719	-0.027771	
0.150696	-0.0262451	
0.151794	-0.0283813	
0.153015	-0.0332642	
0.154358	-0.0405884	
0.155823	-0.0485229	
0.157349	-0.0564575	
0.158875	-0.0631714	
0.160095	-0.0680542	
0.160828	-0.0695801	
0.16095	-0.0695801	
0.160339	-0.0692749	
0.158936	-0.0698853	
0.156677	-0.0741577	
0.153748	-0.0796509	
0.150208	-0.0836182	
0.146301	-0.0848389	
0.142456	-0.083313	
0.139038	-0.0805664	
0.136414	-0.0759888	
0.134705	-0.0689697	
0.134094	-0.0610352	
0.134583	-0.0540161	
0.136047	-0.0488281	
0.138306	-0.0466919	
0.141113	-0.0479126	
0.144287	-0.0524902	
0.147522	-0.0604248	
0.150635	-0.0689697	
0.15332	-0.0765991	
0.155396	-0.0836182	
0.156738	-0.0897217	
0.157288	-0.093689	
0.157166	-0.0946045	
0.156372	-0.0924683	
0.15509	-0.085144	
0.153442	-0.0738525	
0.151489	-0.0604248	
0.149597	-0.0466919	
0.147827	-0.03479	
0.146362	-0.0256348	
0.145264	-0.0192261	
0.144531	-0.0164795	
0.144165	-0.0192261	
0.143982	-0.027771	
0.143982	-0.0393677	
0.143921	-0.0512695	
0.143799	-0.0622559	
0.143433	-0.0723267	
0.1427	-0.0817871	
0.141541	-0.0888062	
0.140015	-0.0930786	
0.138184	-0.0949097	
0.136108	-0.0942993	
0.13385	-0.0909424	
0.131531	-0.0860596	
0.129333	-0.0799561	
0.127258	-0.0741577	
0.125366	-0.0674438	
0.123657	-0.0595093	
0.122009	-0.0524902	
0.120239	-0.0482178	
0.118103	-0.0469971	
0.115417	-0.0485229	
0.112122	-0.0521851	
0.108215	-0.0588989	
0.103943	-0.0674438	
0.0994263	-0.0750732	
0.0949707	-0.0820923	
0.0907593	-0.0875854	
0.0870361	-0.0900269	
0.0841675	-0.0897217	
0.0821533	-0.0872803	
0.0809937	-0.083313	
0.0803833	-0.078125	
0.0801392	-0.0735474	
0.0799561	-0.0671387	
0.0797729	-0.06073	
0.0792847	-0.055542	
0.0785522	-0.0491333	
0.0775146	-0.0424194	
0.0762329	-0.0369263	
0.0747681	-0.0335693	
0.0731812	-0.0311279	
0.0715942	-0.0314331	
0.0699463	-0.0354004	
0.0682983	-0.0430298	
0.0666504	-0.0527954	
0.0649414	-0.0604248	
0.0633545	-0.0643921	
0.0616455	-0.0634766	
0.0599365	-0.057373	
0.0582886	-0.0494385	
0.0566406	-0.0405884	
0.0550537	-0.0305176	
0.0535889	-0.0219727	
0.052124	-0.015564	
0.0507202	-0.0115967	
0.0492554	-0.00854492	
0.0476074	-0.0088501	
0.0458984	-0.0137329	
0.0440674	-0.0213623	
0.0420532	-0.0289917	
0.039978	-0.0350952	
0.0378418	-0.0408936	
0.0357666	-0.0476074	
0.0338135	-0.0549316	
0.0318604	-0.0634766	
0.0299683	-0.0717163	
0.0281372	-0.0775146	
0.0262451	-0.0811768	
0.024292	-0.0839233	
0.0219727	-0.0857544	
0.019104	-0.0857544	
0.0157471	-0.085144	
0.0119019	-0.0842285	
0.00762939	-0.0811768	
0.00280762	-0.0753784	
-0.0022583	-0.0689697	
-0.00756836	-0.0631714	
-0.0128784	-0.0582886	
-0.0180664	-0.0546265	
-0.0229492	-0.0543213	
-0.0275269	-0.0570679	
-0.0316772	-0.0628662	
-0.0355225	-0.0686646	
-0.0390625	-0.0741577	
-0.0425415	-0.0799561	
-0.0457764	-0.0854492	
-0.0488281	-0.0875854	
-0.0516968	-0.0857544	
-0.0541992	-0.0830078	
-0.0564575	-0.0802612	
-0.0584717	-0.0772095	
-0.0602417	-0.0750732	
-0.0617676	-0.0747681	
-0.0631714	-0.0762939	
-0.0645752	-0.0799561	
-0.06604	-0.0857544	
-0.0675659	-0.0921631	
-0.0692139	-0.0964355	
-0.0709229	-0.0967407	
-0.0726318	-0.0930786	
-0.0742798	-0.0866699	
-0.0759888	-0.078125	
-0.0775146	-0.0683594	
-0.0789185	-0.0592041	
-0.0802002	-0.0518799	
-0.0814819	-0.0479126	
-0.0827637	-0.0488281	
-0.0841675	-0.0524902	
-0.0855713	-0.0540161	
-0.0869751	-0.0485229	
-0.0883179	-0.0338745	
-0.0895996	-0.010376	
-0.0907593	0.0234985	
-0.0917969	0.0708008	
-0.0926514	0.129395	
-0.0934448	0.195923	
-0.0940552	0.262451	
-0.0946045	0.32196	
-0.0952148	0.368652	
-0.0959473	0.397034	
-0.0968628	0.403748	
-0.0979004	0.388184	
-0.098938	0.352478	
-0.0999146	0.299988	
-0.100708	0.234375	
-0.101135	0.160217	
-0.100891	0.0817871	
-0.0999146	0.00427246	
-0.0982056	-0.0680542	
-0.0958252	-0.131531	
-0.0928955	-0.182495	
-0.0895996	-0.218811	
-0.0859985	-0.238037	
-0.0824585	-0.240784	
-0.0791626	-0.229187	
-0.0764771	-0.205383	
-0.074585	-0.171204	
-0.0734253	-0.132446	
-0.0730591	-0.0930786	
-0.0736084	-0.0595093	
-0.0748291	-0.0354004	
-0.0765381	-0.022583	
-0.0785522	-0.0201416	
-0.0806274	-0.0244141	
-0.0826416	-0.0317383	
-0.0844116	-0.0390625	
-0.0858154	-0.0445557	
-0.086853	-0.0479126	
-0.0875854	-0.0488281	
-0.0880127	-0.0469971	
-0.0883789	-0.0430298	
-0.0888062	-0.0378418	
-0.0894165	-0.032959	
-0.090271	-0.0299072	
-0.0913696	-0.0289917	
-0.0926514	-0.0289917	
-0.0941162	-0.0292969	
-0.0956421	-0.0299072	
-0.097168	-0.0308228	
-0.0986938	-0.0311279	
-0.100037	-0.0283813	
-0.101196	-0.0210571	
-0.102234	-0.0131226	
-0.103149	-0.00671387	
-0.104004	-0.00152588	
-0.104858	0.00152588	
-0.105774	0.00274658	
-0.106689	0.00152588	
-0.107544	-0.00183105	
-0.108337	-0.00640869	
-0.108948	-0.0131226	
-0.109375	-0.0210571	
-0.109497	-0.027771	
-0.109253	-0.0305176	
-0.108704	-0.0289917	
-0.107788	-0.0259399	
-0.106628	-0.0219727	
-0.105164	-0.0161743	
-0.103577	-0.0100708	
-0.10199	-0.00427246	
-0.100403	-0.000610352	
-0.0990601	0.000915527	
-0.0979004	0.000915527	
-0.0970459	0.000305176	
-0.0964966	-0.0012207	
-0.0962524	-0.00396729	
-0.0963135	-0.00488281	
-0.0966797	-0.000610352	
-0.0973511	0.00854492	
-0.0982056	0.020752	
-0.0992432	0.0335693	
-0.100403	0.0448608	
-0.101624	0.0534058	
-0.102844	0.0585938	
-0.104004	0.0601196	
-0.105164	0.0582886	
-0.10614	0.0527954	
-0.106934	0.045166	
-0.107544	0.0384521	
-0.107849	0.0344849	
-0.108032	0.0320435	
-0.108032	0.0323486	
-0.10791	0.038147	
-0.107727	0.0488281	
-0.107361	0.0628662	
-0.106995	0.0775146	
-0.106628	0.0900269	
-0.106323	0.100708	
-0.106018	0.109253	
-0.105774	0.114746	
-0.105469	0.116882	
-0.105164	0.114441	
-0.104858	0.108337	
-0.104431	0.101929	
-0.103882	0.098877	
-0.102966	0.101013	
-0.101807	0.108948	
-0.100281	0.119629	
-0.0984497	0.128479	
-0.0961914	0.136414	
-0.0932007	0.145264	
-0.0895386	0.154724	
-0.085083	0.163269	
-0.0800781	0.169373	
-0.074585	0.17334	
-0.0687866	0.179443	
-0.0627441	0.188293	
-0.0567627	0.198364	
-0.0510864	0.209045	
-0.0458374	0.220337	
-0.0410767	0.231018	
-0.0366821	0.241089	
-0.0324707	0.249329	
-0.0280151	0.254211	
-0.0230713	0.256958	
-0.017334	0.258789	
-0.0106812	0.261841	
-0.00305176	0.265503	
0.00543213	0.267029	
0.0147095	0.266724	
0.0244751	0.26825	
0.0344849	0.272217	
0.0444946	0.278625	
0.0541992	0.28656	
0.0635986	0.29541	
0.0725708	0.304871	
0.0811768	0.3125	
0.0894775	0.317993	
0.0974731	0.32074	
0.105286	0.32074	
0.112854	0.318298	
0.119995	0.312805	
0.126648	0.303345	
0.132629	0.291443	
0.137756	0.278625	
0.142151	0.266113	
0.14563	0.25116	
0.148315	0.233765	
0.15033	0.215759	
0.151855	0.197449	
0.153137	0.179138	
0.154114	0.162354	
0.155029	0.147705	
0.155945	0.137024	
0.15686	0.129089	
0.157776	0.122681	
0.158569	0.117188	
0.159302	0.110779	
0.159973	0.101318	
0.160522	0.0875854	
0.16095	0.0689697	
0.161255	0.0479126	
0.161377	0.0271606	
0.161377	0.00976563	
0.161194	-0.00305176	
0.160767	-0.0119019	
0.160095	-0.0161743	
0.159241	-0.0158691	
0.158264	-0.0137329	
0.15741	-0.0137329	
0.15686	-0.0177002	
0.156799	-0.0262451	
0.157043	-0.0378418	
0.157593	-0.0512695	
0.158386	-0.0643921	
0.159302	-0.0738525	
0.160156	-0.0775146	
0.160706	-0.0762939	
0.16095	-0.0726318	
0.160767	-0.0662231	
0.160217	-0.0582886	
0.159302	-0.0515747	
0.158081	-0.0497437	
0.156799	-0.0527954	
0.155396	-0.06073	
0.154053	-0.0714111	
0.152588	-0.0811768	
0.151123	-0.0891113	
0.149658	-0.0942993	
0.148254	-0.0967407	
0.146912	-0.0961304	
0.145752	-0.0939941	
0.144897	-0.0915527	
0.144592	-0.0900269	
0.14502	-0.0900269	
0.146301	-0.0924683	
0.148376	-0.0958252	
0.151367	-0.0991821	
0.15509	-0.102539	
0.159363	-0.10437	
0.164001	-0.102844	
0.168701	-0.0967407	
0.173218	-0.0878906	
0.177368	-0.0793457	
0.181091	-0.0732422	
0.184326	-0.0695801	
0.187195	-0.0668335	
0.189758	-0.0646973	
0.192261	-0.0646973	
0.194702	-0.0671387	
0.197205	-0.0698853	
0.199768	-0.0738525	
0.202393	-0.0793457	
0.205078	-0.0845337	
0.207581	-0.0875854	
0.209839	-0.0878906	
0.211548	-0.0881958	
0.21283	-0.0894165	
0.21344	-0.0900269	
0.21344	-0.088501	
0.212769	-0.0860596	
0.211487	-0.0842285	
0.209717	-0.0820923	
0.20752	-0.0790405	
0.205139	-0.0756836	
0.202637	-0.0723267	
0.200134	-0.0683594	
0.197754	-0.0631714	
0.195435	-0.0588989	
0.193298	-0.0567627	
0.191162	-0.0570679	
0.189148	-0.0613403	
0.187195	-0.071106	
0.185303	-0.0836182	
0.18335	-0.0958252	
0.181274	-0.10376	
0.178955	-0.106506	
0.176453	-0.104065	
0.173706	-0.0967407	
0.170776	-0.0848389	
0.167725	-0.0704956	
0.164551	-0.0561523	
0.161316	-0.0445557	
0.15802	-0.038147	
0.154846	-0.0375366	
0.151672	-0.0418091	
0.148621	-0.0482178	
0.14563	-0.0567627	
0.1427	-0.065918	
0.139771	-0.0747681	
0.136902	-0.0805664	
0.134033	-0.0808716	
0.131287	-0.0759888	
0.128662	-0.067749	
0.12616	-0.06073	
0.12384	-0.0558472	
0.121704	-0.0509644	
0.11969	-0.0460815	
0.117859	-0.0442505	
0.116272	-0.0479126	
0.114929	-0.0579834	
0.114014	-0.071106	
0.113586	-0.0823975	
0.11377	-0.0906372	
0.114624	-0.0985718	
0.116211	-0.10498	
0.118469	-0.107727	
0.12146	-0.105591	
0.125	-0.100403	
0.128906	-0.0933838	
0.132935	-0.0854492	
0.136719	-0.0778198	
0.139954	-0.0723267	
0.142456	-0.0674438	
0.144287	-0.0619507	
0.145264	-0.0564575	
0.145508	-0.0518799	
0.145142	-0.0473022	
0.144287	-0.0430298	
0.143311	-0.039978	
0.142456	-0.0393677	
0.141907	-0.0415039	
0.141724	-0.0463867	
0.141785	-0.0546265	
0.142029	-0.0662231	
0.142395	-0.078125	
0.1427	-0.0878906	
0.142761	-0.0967407	
0.142578	-0.10437	
0.142151	-0.107727	
0.141541	-0.105591	
0.140808	-0.098877	
0.140015	-0.0891113	
0.139221	-0.0787354	
0.138428	-0.0689697	
0.137634	-0.06073	
0.136841	-0.0540161	
0.135864	-0.0494385	
0.134705	-0.0491333	
0.133179	-0.0540161	
0.13147	-0.0637817	
0.129517	-0.0762939	
0.12738	-0.090332	
0.125244	-0.10498	
0.123047	-0.115662	
0.120911	-0.120544	
0.118774	-0.120544	
0.116699	-0.115967	
0.114807	-0.107117	
0.113037	-0.0939941	
0.111511	-0.0784302	
0.110046	-0.0646973	
0.108765	-0.0567627	
0.107544	-0.0546265	
0.106323	-0.0558472	
0.105103	-0.0595093	
0.103821	-0.0650024	
0.102417	-0.0723267	
0.100891	-0.078125	
0.0992432	-0.0805664	
0.0974121	-0.0802612	
0.09552	-0.0787354	
0.0935059	-0.0762939	
0.0914917	-0.0726318	
0.0894165	-0.0680542	
0.0873413	-0.0643921	
0.0852661	-0.062561	
0.0830688	-0.0613403	
0.0809326	-0.0598145	
0.0789795	-0.0598145	
0.0769653	-0.0610352	
0.0749512	-0.0613403	
0.0728149	-0.0616455	
0.0704956	-0.0628662	
0.0680542	-0.0662231	
0.0654297	-0.0701904	
0.062561	-0.0741577	
0.0595093	-0.0784302	
0.0563354	-0.0820923	
0.0532837	-0.0823975	
0.050293	-0.0790405	
0.0477295	-0.0735474	
0.0457153	-0.0671387	
0.0444336	-0.0592041	
0.0439453	-0.0488281	
0.0441895	-0.0378418	
0.045166	-0.0292969	
0.0466309	-0.0256348	
0.0484619	-0.0262451	
0.0504761	-0.0305176	
0.0523682	-0.0363159	
0.0541382	-0.0424194	
0.055481	-0.0479126	
0.0563965	-0.050354	
0.0570068	-0.050354	
0.057312	-0.0482178	
0.0574951	-0.0436401	
0.0576782	-0.0372314	
0.0578613	-0.0335693	
0.0581055	-0.0338745	
0.0584106	-0.0387573	
0.0588379	-0.0479126	
0.0592041	-0.0598145	
0.0593872	-0.0732422	
0.0591431	-0.0857544	
0.0582886	-0.0949097	
0.0567627	-0.0991821	
0.0546265	-0.0985718	
0.0517578	-0.0952148	
0.0481567	-0.0891113	
0.0438843	-0.0817871	
0.0391235	-0.0741577	
0.0340576	-0.0683594	
0.0288696	-0.0665283	
0.0238037	-0.0680542	
0.0189819	-0.0714111	
0.0145264	-0.0738525	
0.0105591	-0.0744629	
0.00701904	-0.0747681	
0.00390625	-0.0756836	
0.00140381	-0.078125	
-0.000732422	-0.0796509	
-0.00256348	-0.078125	
-0.00421143	-0.0759888	
-0.00585938	-0.0762939	
-0.00744629	-0.0793457	
-0.00897217	-0.0842285	
-0.0105591	-0.0912476	
-0.012146	-0.0991821	
-0.0136719	-0.107422	
-0.0151367	-0.115662	
-0.0164795	-0.123291	
-0.0177612	-0.128479	
-0.019043	-0.128479	
-0.0203857	-0.123901	
-0.0217896	-0.115356	
-0.0231934	-0.103149	
-0.0245972	-0.0897217	
-0.0259399	-0.0772095	
-0.0272217	-0.0674438	
-0.0282593	-0.0628662	
-0.0291138	-0.0631714	
-0.0296631	-0.0665283	
-0.0299683	-0.0701904	
-0.0300903	-0.0741577	
-0.0300903	-0.0793457	
-0.0300293	-0.0827026	
-0.0300293	-0.0808716	
-0.0300903	-0.0717163	
-0.0301514	-0.0552368	
-0.0302124	-0.0311279	
-0.0302124	0.0012207	
-0.0301514	0.0421143	
-0.0300293	0.0924683	
-0.0299072	0.149536	
-0.0297852	0.209656	
-0.0296631	0.26825	
-0.0296021	0.318909	
-0.0297241	0.35675	
-0.0301514	0.376587	
-0.0308838	0.376892	
-0.0317383	0.35553	
-0.0327148	0.315857	
-0.0336914	0.262756	
-0.034668	0.200806	
-0.0356445	0.132446	
-0.036499	0.0613403	
-0.0372314	-0.00762939	
-0.0378418	-0.0698853	
-0.038208	-0.12085	
-0.0384521	-0.158997	
-0.0385742	-0.185242	
-0.0385742	-0.199585	
-0.0385132	-0.202026	
-0.0383301	-0.192871	
-0.0380249	-0.17395	
-0.0377197	-0.148621	
-0.0375977	-0.12146	
-0.0375977	-0.0949097	
-0.0379028	-0.072937	
-0.0384521	-0.0588989	
-0.0392456	-0.0543213	
-0.0403442	-0.0546265	
-0.0415649	-0.0558472	
-0.0429688	-0.0570679	
-0.0444336	-0.0598145	
-0.0458374	-0.0613403	
-0.0470581	-0.0601196	
-0.0480347	-0.0558472	
-0.0488281	-0.0512695	
-0.0494385	-0.0482178	
-0.0499268	-0.0476074	
-0.050293	-0.0500488	
-0.0506592	-0.0534058	
-0.0509644	-0.0567627	
-0.0513916	-0.057373	
-0.052002	-0.0543213	
-0.0526733	-0.0482178	
-0.0535278	-0.0396729	
-0.0544434	-0.0289917	
-0.0554199	-0.0170898	
-0.0564575	-0.00701904	
-0.0574951	0	
-0.0584717	0.00396729	
-0.0594482	0.00701904	
-0.0604248	0.00915527	
-0.0612793	0.00946045	
-0.0621948	0.00701904	
-0.0631714	0.00213623	
-0.064209	-0.00366211	
-0.0654297	-0.0112915	
-0.0668335	-0.0198364	
-0.0682983	-0.0274658	
-0.0700073	-0.0326538	
-0.0717163	-0.03479	
-0.0734863	-0.0332642	
-0.0752563	-0.027771	
-0.0770264	-0.0180054	
-0.0787354	-0.00366211	
-0.0803833	0.0119019	
-0.0819092	0.022583	
-0.083313	0.0256348	
-0.0845947	0.0222778	
-0.0858765	0.0146484	
-0.0871582	0.00427246	
-0.0883789	-0.00640869	
-0.0895996	-0.0146484	
-0.0909424	-0.0183105	
-0.0922852	-0.0164795	
-0.093689	-0.00976563	
-0.0951538	-0.000305176	
-0.0966187	0.0100708	
-0.0980225	0.0195313	
-0.0993652	0.0268555	
-0.100525	0.0311279	
-0.101624	0.0326538	
-0.102661	0.0320435	
-0.103516	0.0305176	
-0.104248	0.0296021	
-0.105042	0.0317383	
-0.105835	0.0387573	
-0.106689	0.0494385	
-0.107483	0.0598145	
-0.108276	0.0695801	
-0.109009	0.0799561	
-0.109497	0.090332	
-0.109863	0.098877	
-0.109985	0.10437	
-0.109924	0.107422	
-0.109497	0.108948	
-0.108887	0.108948	
-0.10791	0.109253	
-0.106689	0.109863	
-0.105164	0.112305	
-0.103394	0.114441	
-0.101318	0.115356	
-0.098938	0.116272	
-0.0961914	0.120239	
-0.0931396	0.127869	
-0.0898438	0.136719	
-0.0863647	0.147095	
-0.0827637	0.158997	
-0.0791626	0.170593	
-0.0755005	0.180359	
-0.0718384	0.188293	
-0.0681152	0.196533	
-0.064209	0.204468	
-0.0600586	0.209351	
-0.055481	0.211182	
-0.050293	0.211182	
-0.0444946	0.210876	
-0.0380859	0.213928	
-0.031189	0.221252	
-0.0239258	0.231018	
-0.0164795	0.241394	
-0.00897217	0.253296	
-0.00164795	0.266113	
0.00543213	0.27771	
0.012146	0.28595	
0.0185547	0.292358	
0.0245972	0.298157	
0.0303345	0.302734	
0.0358276	0.305786	
0.0410156	0.306702	
0.0460205	0.306396	
0.0509644	0.306091	
0.0556641	0.306396	
0.0603638	0.306091	
0.0648804	0.303955	
0.069397	0.298462	
0.0739136	0.289612	
0.0784302	0.2771	
0.0830078	0.262451	
0.0876465	0.247803	
0.0922852	0.237122	
0.0968018	0.231628	
0.101135	0.230713	
0.105286	0.234985	
0.109192	0.243835	
0.112915	0.252991	
0.116272	0.256958	
0.119385	0.252991	
0.122253	0.241089	
0.124817	0.218811	
0.127197	0.186462	
0.129456	0.148926	
0.131653	0.112305	
0.133789	0.0814819	
0.135925	0.0579834	
0.137939	0.0424194	
0.139893	0.0341797	
0.141785	0.0317383	
0.143677	0.0332642	
0.145508	0.0341797	
0.147217	0.0311279	
0.148743	0.0238037	
0.150085	0.0140381	
0.151184	0.00366211	
0.151978	-0.00793457	
0.152466	-0.0189209	
0.15271	-0.0286865	
0.152649	-0.0390625	
0.152283	-0.0515747	
0.151611	-0.0653076	
0.150757	-0.078125	
0.149719	-0.0888062	
0.148682	-0.0958252	
0.147766	-0.0991821	
0.147034	-0.0994873	
0.146545	-0.0967407	
0.14624	-0.0900269	
0.146118	-0.0793457	
0.14624	-0.0671387	
0.146484	-0.057373	
0.14679	-0.0515747	
0.147034	-0.0506592	
0.147278	-0.0527954	
0.147461	-0.057373	
0.147644	-0.0613403	
0.147827	-0.0637817	
0.148132	-0.0656128	
0.14856	-0.065918	
0.149109	-0.0650024	
0.149902	-0.0628662	
0.151001	-0.0595093	
0.152527	-0.0567627	
0.154419	-0.0552368	
0.156738	-0.0564575	
0.159302	-0.0601196	
0.161926	-0.0650024	
0.164368	-0.071106	
0.166443	-0.078125	
0.168091	-0.0836182	
0.169373	-0.0857544	
0.170349	-0.0857544	
0.171082	-0.0863647	
0.171753	-0.0875854	
0.172607	-0.0894165	
0.174011	-0.0912476	
0.175964	-0.0915527	
0.178467	-0.0927734	
0.181335	-0.0961304	
0.184326	-0.0994873	
0.187378	-0.0997925	
0.190247	-0.0970459	
0.19281	-0.0918579	
0.195129	-0.0860596	
0.197021	-0.0811768	
0.198608	-0.0772095	
0.199951	-0.0735474	
0.200989	-0.0720215	
0.201843	-0.0732422	
0.202454	-0.0759888	
0.202942	-0.0784302	
0.203308	-0.0784302	
0.203491	-0.0759888	
0.203491	-0.0726318	
0.203308	-0.0671387	
0.203003	-0.06073	
0.202515	-0.0558472	
0.201843	-0.0540161	
0.200928	-0.0543213	
0.199768	-0.0561523	
0.198425	-0.0598145	
0.19696	-0.0637817	
0.195251	-0.0668335	
0.193481	-0.0671387	
0.191589	-0.0640869	
0.189697	-0.0585938	
0.187805	-0.0524902	
0.185913	-0.0491333	
0.184082	-0.050354	
0.182251	-0.0543213	
0.180542	-0.0582886	
0.178955	-0.0637817	
0.177429	-0.0701904	
0.176025	-0.0765991	
0.174622	-0.0808716	
0.173279	-0.0823975	
0.171936	-0.0808716	
0.170593	-0.078125	
0.16925	-0.0750732	
0.167908	-0.0732422	
0.166565	-0.072937	
0.165039	-0.0741577	
0.163269	-0.0762939	
0.161194	-0.0796509	
0.158691	-0.0839233	
0.155823	-0.088501	
0.152588	-0.0906372	
0.148987	-0.0912476	
0.145203	-0.0918579	
0.141296	-0.0921631	
0.137451	-0.0906372	
0.133789	-0.0857544	
0.130493	-0.0793457	
0.127625	-0.0738525	
0.125183	-0.0695801	
0.123108	-0.0656128	
0.121399	-0.0631714	
0.119873	-0.06073	
0.118469	-0.0598145	
0.117188	-0.0616455	
0.115967	-0.0646973	
0.114746	-0.0665283	
0.113525	-0.0662231	
0.112305	-0.0628662	
0.110962	-0.0579834	
0.109619	-0.0531006	
0.108337	-0.0491333	
0.107056	-0.0457764	
0.105835	-0.0442505	
0.104675	-0.0469971	
0.103455	-0.0537109	
0.102234	-0.0634766	
0.100952	-0.0732422	
0.0996704	-0.0823975	
0.0982666	-0.090332	
0.0968018	-0.0958252	
0.0952759	-0.0991821	
0.093689	-0.100403	
0.092041	-0.100708	
0.0904541	-0.102234	
0.0889282	-0.105286	
0.0875854	-0.105896	
0.0863647	-0.102234	
0.0852051	-0.0973511	
0.0841675	-0.0921631	
0.0831909	-0.0869751	
0.0823975	-0.0814819	
0.081543	-0.0753784	
0.0807495	-0.0698853	
0.0799561	-0.0671387	
0.0791626	-0.0671387	
0.0784912	-0.0686646	
0.0778809	-0.0708008	
0.0773315	-0.0726318	
0.0769043	-0.072937	
0.0764771	-0.0717163	
0.0759277	-0.0708008	
0.0753174	-0.071106	
0.0745239	-0.0726318	
0.0736084	-0.0753784	
0.0724487	-0.0775146	
0.071106	-0.0793457	
0.0695801	-0.0808716	
0.0679321	-0.0811768	
0.0662231	-0.0787354	
0.0645752	-0.0723267	
0.0628662	-0.0628662	
0.0612183	-0.0527954	
0.0595703	-0.0463867	
0.0578003	-0.0454712	
0.0559692	-0.0482178	
0.0540771	-0.0518799	
0.052124	-0.0576782	
0.0502319	-0.0665283	
0.0482178	-0.0778198	
0.0463257	-0.0894165	
0.0445557	-0.100098	
0.0429688	-0.108948	
0.0415039	-0.112915	
0.0402222	-0.111084	
0.0390625	-0.105896	
0.0380859	-0.0979614	
0.0371704	-0.0863647	
0.0361938	-0.0714111	
0.0351563	-0.0564575	
0.0338135	-0.043335	
0.0322266	-0.032959	
0.0303955	-0.027771	
0.0282593	-0.0286865	
0.026001	-0.0363159	
0.0235596	-0.0485229	
0.0211182	-0.0628662	
0.0187378	-0.0769043	
0.0164185	-0.0878906	
0.0142822	-0.0946045	
0.0123291	-0.0958252	
0.010498	-0.0918579	
0.0088501	-0.0842285	
0.00726318	-0.0738525	
0.00579834	-0.0616455	
0.0043335	-0.0479126	
0.00299072	-0.0344849	
0.00170898	-0.0222778	
0.000427246	-0.0115967	
-0.000732422	-0.00244141	
-0.00189209	0.00518799	
-0.00292969	0.0100708	
-0.00402832	0.0128174	
-0.00518799	0.0131226	
-0.00622559	0.00946045	
-0.00732422	0.00305176	
-0.00836182	-0.00518799	
-0.00946045	-0.0152588	
-0.0105591	-0.027771	
-0.0114136	-0.0418091	
-0.0118408	-0.0558472	
-0.0118408	-0.0686646	
-0.0112305	-0.0793457	
-0.0100708	-0.0878906	
-0.00823975	-0.0924683	
-0.00592041	-0.0939941	
-0.00305176	-0.0946045	
0	-0.0952148	
0.00311279	-0.0970459	
0.00598145	-0.100708	
0.00860596	-0.104065	
0.0108643	-0.107727	
0.0126953	-0.113525	
0.0141602	-0.120239	
0.0152588	-0.126953	
0.0160522	-0.131836	
0.0166016	-0.133057	
0.0170288	-0.131531	
0.0172119	-0.127563	
0.0172729	-0.121765	
0.0171509	-0.114136	
0.0167847	-0.104675	
0.0163574	-0.0942993	
0.015686	-0.0842285	
0.0150146	-0.0747681	
0.0144043	-0.0650024	
0.0139771	-0.055542	
0.0136108	-0.050354	
0.0132446	-0.0491333	
0.0128174	-0.0506592	
0.012207	-0.0521851	
0.0113525	-0.0537109	
0.0101929	-0.0570679	
0.00872803	-0.062561	
0.00714111	-0.0701904	
0.0055542	-0.078125	
0.00415039	-0.0836182	
0.00299072	-0.0869751	
0.00238037	-0.0894165	
0.00213623	-0.0912476	
0.00238037	-0.0915527	
0.00274658	-0.0888062	
0.00323486	-0.0860596	
0.00341797	-0.0839233	
0.00323486	-0.0814819	
0.00250244	-0.0784302	
0.00109863	-0.0747681	
-0.000915527	-0.0692749	
-0.003479	-0.0576782	
-0.00653076	-0.0344849	
-0.0100098	0.00305176	
-0.0137329	0.0540161	
-0.0175171	0.115662	
-0.0211182	0.18219	
-0.0245361	0.249939	
-0.0276489	0.312805	
-0.0303955	0.362854	
-0.0326538	0.394287	
-0.034668	0.402527	
-0.036499	0.386963	
-0.0384521	0.350952	
-0.0405273	0.299072	
-0.0427246	0.235291	
-0.0452271	0.161743	
-0.0479126	0.085144	
-0.0508423	0.0112915	
-0.053772	-0.0561523	
-0.0566406	-0.114441	
-0.0593872	-0.161743	
-0.0619507	-0.197144	
-0.06427	-0.220642	
-0.0663452	-0.231934	
-0.0681152	-0.231018	
-0.0697021	-0.218506	
-0.071106	-0.195618	
-0.0723267	-0.166016	
-0.0734863	-0.134277	
-0.0745239	-0.10376	
-0.0755005	-0.0756836	
-0.0764771	-0.0497437	
-0.0775146	-0.0271606	
-0.0786133	-0.0100708	
-0.0796509	0.000610352	
-0.0808105	0.00488281	
-0.0819702	0.00335693	
-0.0831909	-0.00305176	
-0.0842285	-0.0137329	
-0.085083	-0.0271606	
-0.0856934	-0.0402832	
-0.0862427	-0.0506592	
-0.086853	-0.0585938	
-0.0874023	-0.0653076	
-0.0880737	-0.0695801	
-0.0889282	-0.0680542	
-0.0899048	-0.0622559	
-0.0911865	-0.0546265	
-0.0927734	-0.0463867	
-0.0945435	-0.0387573	
-0.0964966	-0.0320435	
-0.0987549	-0.0268555	
-0.101135	-0.0244141	
-0.103699	-0.0244141	
-0.106506	-0.0262451	
-0.109497	-0.0286865	
-0.11261	-0.0305176	
-0.115845	-0.0305176	
-0.11908	-0.0292969	
-0.122314	-0.0271606	
-0.125427	-0.0231934	
-0.128418	-0.0183105	
-0.131226	-0.0125122	
-0.13385	-0.00518799	
-0.136169	0.00183105	
-0.138306	0.00701904	
-0.140259	0.0119019	
-0.14209	0.0164795	
-0.143799	0.0201416	
-0.145569	0.0222778	
-0.147278	0.0228882	
-0.149048	0.0241089	
-0.150757	0.0228882	
-0.152283	0.0177002	
-0.153442	0.00946045	
-0.154053	0.00183105	
-0.154053	-0.00213623	
-0.153198	-0.00152588	
-0.15155	0.00305176	
-0.149353	0.00976563	
-0.146606	0.0164795	
-0.143555	0.022583	
-0.140442	0.0268555	
-0.13739	0.0308228	
-0.134583	0.0326538	
-0.13208	0.0286865	
-0.130127	0.022583	
-0.128784	0.0186157	
-0.128235	0.0177002	
-0.12854	0.0195313	
-0.129822	0.0259399	
-0.132019	0.0366211	
-0.135132	0.0488281	
-0.138916	0.0592041	
-0.143127	0.0653076	
-0.147461	0.0680542	
-0.151733	0.0704956	
-0.155701	0.072937	
-0.159241	0.0762939	
-0.162292	0.0799561	
-0.164978	0.0839233	
-0.167297	0.0900269	
-0.169312	0.098877	
-0.171204	0.110474	
-0.172852	0.12146	
-0.174255	0.130005	
-0.175171	0.134277	
-0.175537	0.136108	
-0.175171	0.138855	
-0.174255	0.142212	
-0.172791	0.145264	
-0.170837	0.147095	
-0.168518	0.148315	
-0.165955	0.150757	
-0.163269	0.154114	
-0.160461	0.157471	
-0.157654	0.162354	
-0.154785	0.169373	
-0.151672	0.178223	
-0.148315	0.188293	
-0.144592	0.201416	
-0.140503	0.217285	
-0.135986	0.234375	
-0.131226	0.249939	
-0.126221	0.261841	
-0.121155	0.26886	
-0.115967	0.270691	
-0.11084	0.269165	
-0.105713	0.264587	
-0.100586	0.259705	
-0.0953979	0.255737	
-0.0900879	0.253601	
-0.0846558	0.254517	
-0.0790405	0.259399	
-0.0732422	0.26825	
-0.0673828	0.278931	
-0.0613403	0.288086	
-0.0553589	0.293884	
-0.0494385	0.296631	
-0.0437622	0.297241	
-0.0383301	0.2948	
-0.0332642	0.288696	
-0.0286865	0.279541	
-0.0245361	0.26886	
-0.020752	0.256958	
-0.017334	0.246582	
-0.0142212	0.238342	
-0.0113525	0.231018	
-0.00866699	0.224609	
-0.00610352	0.219116	
-0.00360107	0.214233	
-0.00109863	0.206909	
0.00140381	0.194092	
0.00378418	0.176392	
0.00604248	0.155945	
0.00811768	0.133057	
0.0100708	0.106201	
0.0119629	0.0778198	
0.0137939	0.0512695	
0.0155029	0.0286865	
0.0170898	0.00976563	
0.0186768	-0.00518799	
0.0202026	-0.0152588	
0.0216675	-0.0213623	
0.0230103	-0.0259399	
0.0241699	-0.0305176	
0.0252075	-0.0357056	
0.0263672	-0.0408936	
0.027771	-0.045166	
0.029541	-0.0473022	
0.0318604	-0.0482178	
0.0346069	-0.0482178	
0.0379028	-0.0476074	
0.041687	-0.0476074	
0.0457764	-0.0482178	
0.0499268	-0.0491333	
0.053894	-0.0512695	
0.0574341	-0.0534058	
0.0603638	-0.0552368	
0.0625	-0.0585938	
0.0635986	-0.0637817	
0.0635986	-0.0698853	
0.062561	-0.0753784	
0.0606079	-0.0799561	
0.0578613	-0.0857544	
0.0543823	-0.0939941	
0.0505371	-0.10376	
0.0463867	-0.112915	
0.0423584	-0.120239	
0.0385742	-0.124207	
0.0350952	-0.125732	
0.0319214	-0.125732	
0.0290527	-0.123291	
0.0264893	-0.117798	
0.024231	-0.111084	
0.0220947	-0.10498	
0.0201416	-0.100708	
0.0182495	-0.0964355	
0.0164795	-0.0927734	
0.0148315	-0.0909424	
0.0133057	-0.0918579	
0.0119019	-0.0958252	
0.0106812	-0.101929	
0.00964355	-0.108032	
0.00878906	-0.111694	
0.00823975	-0.115967	
0.00799561	-0.121765	
0.00787354	-0.126038	
0.00793457	-0.129089	
0.00799561	-0.129395	
0.00805664	-0.126953	
0.00799561	-0.12207	
0.0078125	-0.114441	
0.00750732	-0.106812	
0.00714111	-0.100708	
0.00671387	-0.0973511	
0.00622559	-0.0964355	
0.0057373	-0.0961304	
0.00518799	-0.09552	
0.00463867	-0.0961304	
0.00402832	-0.0964355	
0.0032959	-0.0952148	
0.00250244	-0.0933838	
0.00164795	-0.0912476	
0.000671387	-0.0878906	
-0.000305176	-0.0839233	
-0.0012207	-0.0805664	
-0.00183105	-0.0805664	
-0.00213623	-0.0830078	
-0.00201416	-0.0860596	
-0.00158691	-0.0875854	
-0.000732422	-0.0869751	
0.000427246	-0.0830078	
0.00189209	-0.0759888	
0.003479	-0.0689697	
0.00506592	-0.0650024	
0.0065918	-0.0646973	
0.00787354	-0.0668335	
0.00897217	-0.0704956	
0.00982666	-0.0756836	
0.0106201	-0.0817871	
0.0114136	-0.0891113	
0.0125122	-0.0946045	
0.0140991	-0.0973511	
0.0161743	-0.0979614	
0.0187988	-0.098877	
0.0218506	-0.101318	
0.0252075	-0.10498	
0.0287476	-0.108643	
0.0323486	-0.110168	
0.0358276	-0.108643	
0.0390625	-0.105896	
0.0418701	-0.101929	
0.0443115	-0.09552	
0.0463257	-0.0869751	
0.0479736	-0.078125	
0.0490723	-0.0708008	
0.0496216	-0.0653076	
0.0495605	-0.0622559	
0.0487061	-0.0613403	
0.0470581	-0.062561	
0.0446777	-0.0653076	
0.0419312	-0.0686646	
0.0390015	-0.0717163	
0.0361328	-0.0750732	
0.0335083	-0.0793457	
0.0313721	-0.0836182	
0.0297241	-0.0891113	
0.0286865	-0.0946045	
0.0280762	-0.0991821	
0.02771	-0.101318	
0.0272217	-0.100708	
0.0263062	-0.0994873	
0.0250854	-0.0985718	
0.0235596	-0.0970459	
0.0217285	-0.0939941	
0.0197754	-0.0900269	
0.0178833	-0.0845337	
0.0161743	-0.0787354	
0.0147705	-0.0735474	
0.0137939	-0.0714111	
0.0131836	-0.0732422	
0.0128174	-0.0790405	
0.0126343	-0.085144	
0.0125732	-0.0909424	
0.0125122	-0.0994873	
0.0124512	-0.109863	
0.012207	-0.117798	
0.0118408	-0.12207	
0.0112915	-0.122681	
0.0107422	-0.119019	
0.0100708	-0.110779	
0.00927734	-0.100403	
0.00842285	-0.0900269	
0.00738525	-0.0817871	
0.00622559	-0.0747681	
0.00482178	-0.0683594	
0.00299072	-0.0653076	
0.000671387	-0.0665283	
-0.00219727	-0.0698853	
-0.00561523	-0.0747681	
-0.00958252	-0.0799561	
-0.0140381	-0.0845337	
-0.0188599	-0.0881958	
-0.0239258	-0.0930786	
-0.0289917	-0.0979614	
-0.0339355	-0.101624	
-0.0386353	-0.103149	
-0.0430908	-0.102844	
-0.0471802	-0.101929	
-0.0509644	-0.101013	
-0.0545044	-0.0991821	
-0.0577393	-0.0961304	
-0.060791	-0.0924683	
-0.0637207	-0.0891113	
-0.0665894	-0.0878906	
-0.069458	-0.0888062	
-0.0723877	-0.0915527	
-0.0754395	-0.0952148	
-0.0785522	-0.0973511	
-0.0817871	-0.0961304	
-0.085022	-0.0918579	
-0.0882568	-0.0854492	
-0.0914307	-0.0775146	
-0.0945435	-0.067749	
-0.0975952	-0.0567627	
-0.100525	-0.0457764	
-0.103394	-0.038147	
-0.10614	-0.0378418	
-0.108826	-0.0448608	
-0.111511	-0.0546265	
-0.114136	-0.0650024	
-0.116699	-0.0738525	
-0.119202	-0.0820923	
-0.121643	-0.088501	
-0.124023	-0.0906372	
-0.126404	-0.0863647	
-0.128723	-0.0772095	
-0.13092	-0.0650024	
-0.132996	-0.0524902	
-0.13501	-0.0408936	
-0.136902	-0.0308228	
-0.138733	-0.0234985	
-0.140442	-0.0195313	
-0.142029	-0.0189209	
-0.143494	-0.0210571	
-0.144897	-0.0247192	
-0.14624	-0.0289917	
-0.147522	-0.0338745	
-0.148865	-0.0411987	
-0.150085	-0.0491333	
-0.151306	-0.0564575	
-0.152527	-0.0640869	
-0.153748	-0.0726318	
-0.154785	-0.0814819	
-0.15564	-0.090332	
-0.15625	-0.0985718	
-0.156433	-0.10437	
-0.156067	-0.107727	
-0.155212	-0.108948	
-0.15387	-0.105591	
-0.152161	-0.0994873	
-0.15033	-0.0921631	
-0.148682	-0.0857544	
-0.147461	-0.0811768	
-0.146729	-0.0793457	
-0.14679	-0.0805664	
-0.147644	-0.0863647	
-0.14917	-0.0946045	
-0.151306	-0.102539	
-0.153809	-0.109253	
-0.156433	-0.114441	
-0.158936	-0.117798	
-0.161194	-0.119019	
-0.163208	-0.117493	
-0.164917	-0.112915	
-0.166443	-0.106812	
-0.167664	-0.098877	
-0.168762	-0.0891113	
-0.169678	-0.0817871	
-0.170532	-0.0772095	
-0.171204	-0.0738525	
-0.17157	-0.0714111	
-0.17157	-0.0704956	
-0.171021	-0.0717163	
-0.170044	-0.0750732	
-0.168701	-0.0790405	
-0.167175	-0.0814819	
-0.165771	-0.0836182	
-0.164734	-0.0848389	
-0.164307	-0.0848389	
-0.164612	-0.0848389	
-0.165771	-0.0857544	
-0.167786	-0.0866699	
-0.170532	-0.0866699	
-0.173584	-0.0866699	
-0.176697	-0.0869751	
-0.179688	-0.0881958	
-0.182373	-0.0869751	
-0.184631	-0.0830078	
-0.186523	-0.0744629	
-0.18811	-0.0585938	
-0.189575	-0.0341797	
-0.190979	-0.00244141	
-0.192383	0.0366211	
-0.193787	0.0827026	
-0.19519	0.135803	
-0.196655	0.189819	
-0.197937	0.238342	
-0.199158	0.275574	
-0.200195	0.296326	
-0.201172	0.296936	
-0.201965	0.277405	
-0.202637	0.239868	
-0.203186	0.187073	
-0.203613	0.124512	
-0.203918	0.0567627	
-0.204102	-0.0125122	
-0.204163	-0.0784302	
-0.204163	-0.135498	
-0.204163	-0.179138	
-0.204163	-0.207825	
-0.204224	-0.222778	
-0.204346	-0.22583	
-0.204285	-0.218506	
-0.203979	-0.202637	
-0.20343	-0.180054	
-0.202393	-0.154114	
-0.200806	-0.128784	
-0.198608	-0.107117	
-0.195923	-0.0906372	
-0.192932	-0.0793457	
-0.190063	-0.0720215	
-0.187622	-0.0671387	
-0.185974	-0.0637817	
-0.185181	-0.0622559	
-0.185425	-0.06073	
-0.186646	-0.0610352	
-0.188721	-0.0628662	
-0.191528	-0.0646973	
-0.194763	-0.0665283	
-0.198242	-0.0680542	
-0.20166	-0.0686646	
-0.204895	-0.067749	
-0.207947	-0.0643921	
-0.210754	-0.0588989	
-0.213196	-0.0521851	
-0.215454	-0.0439453	
-0.217407	-0.0363159	
-0.219116	-0.0311279	
-0.22052	-0.0292969	
-0.221375	-0.0314331	
-0.22168	-0.0366211	
-0.221375	-0.0421143	
-0.220459	-0.0448608	
-0.218811	-0.0445557	
-0.216492	-0.0408936	
-0.213562	-0.0354004	
-0.210205	-0.0283813	
-0.206665	-0.0201416	
-0.203125	-0.012207	
-0.199829	-0.00701904	
-0.196838	-0.00640869	
-0.194336	-0.0106812	
-0.192261	-0.0186157	
-0.190674	-0.0289917	
-0.189453	-0.0378418	
-0.188477	-0.0415039	
-0.187622	-0.039978	
-0.186951	-0.0344849	
-0.186401	-0.0253296	
-0.185913	-0.0143433	
-0.185486	-0.00244141	
-0.18512	0.0088501	
-0.184814	0.0167847	
-0.18457	0.0192261	
-0.184448	0.0167847	
-0.184448	0.0112915	
-0.18457	0.00427246	
-0.184814	-0.00305176	
-0.185242	-0.00976563	
-0.185669	-0.0149536	
-0.186096	-0.0170898	
-0.186462	-0.015564	
-0.186768	-0.0109863	
-0.187012	-0.00396729	
-0.187073	0.00396729	
-0.187073	0.0112915	
-0.186951	0.0180054	
-0.186951	0.0262451	
-0.186951	0.0357056	
-0.187134	0.0448608	
-0.187439	0.0515747	
-0.187866	0.0567627	
-0.188293	0.0616455	
-0.188538	0.0671387	
-0.188538	0.0723267	
-0.188293	0.0778198	
-0.187744	0.0839233	
-0.186951	0.0906372	
-0.186096	0.0973511	
-0.185242	0.102539	
-0.184509	0.105896	
-0.183899	0.107727	
-0.183411	0.108643	
-0.182983	0.108948	
-0.182495	0.107727	
-0.181885	0.106812	
-0.180969	0.106812	
-0.17981	0.107727	
-0.178406	0.111084	
-0.176758	0.116272	
-0.175232	0.122681	
-0.174011	0.13031	
-0.17334	0.13855	
-0.173218	0.147095	
-0.173645	0.155334	
-0.174561	0.164185	
-0.175781	0.172729	
-0.177246	0.180664	
-0.17865	0.189209	
-0.179749	0.198669	
-0.180359	0.206909	
-0.180298	0.214233	
-0.179504	0.223083	
-0.178162	0.23407	
-0.17627	0.245056	
-0.17395	0.255737	
-0.171326	0.266113	
-0.168518	0.274963	
-0.165405	0.281677	
-0.162231	0.285645	
-0.158875	0.28595	
-0.155457	0.281372	
-0.151978	0.274658	
-0.148438	0.26825	
-0.144836	0.263367	
-0.141235	0.26123	
-0.137634	0.26062	
-0.134033	0.261536	
-0.130493	0.264587	
-0.127014	0.269165	
-0.123535	0.272522	
-0.120117	0.272217	
-0.116638	0.267944	
-0.113037	0.259705	
-0.109436	0.247498	
-0.105835	0.232544	
-0.102173	0.215454	
-0.0985107	0.198059	
-0.0947876	0.180664	
-0.0910645	0.162964	
-0.0874023	0.143738	
-0.0838013	0.125122	
-0.0804443	0.107727	
-0.0773926	0.0927734	
-0.074585	0.0805664	
-0.0721436	0.0695801	
-0.0698242	0.0601196	
-0.0674438	0.0537109	
-0.0648193	0.0485229	
-0.0617065	0.0436401	
-0.0579834	0.0375366	
-0.0535889	0.0286865	
-0.0485229	0.017395	
-0.0428467	0.00335693	
-0.0368652	-0.0128174	
-0.0309448	-0.0305176	
-0.0256348	-0.045166	
-0.0213623	-0.0543213	
-0.0183716	-0.0604248	
-0.0167847	-0.0631714	
-0.0166016	-0.0634766	
-0.0177612	-0.062561	
-0.0200195	-0.0610352	
-0.0230103	-0.0601196	
-0.0263062	-0.0616455	
-0.0296021	-0.0656128	
-0.0325928	-0.071106	
-0.0352173	-0.0772095	
-0.0374146	-0.0839233	
-0.0391846	-0.0897217	
-0.0407104	-0.0933838	
-0.0420532	-0.0949097	
-0.043335	-0.0927734	
-0.0446777	-0.088501	
-0.0460205	-0.0872803	
-0.0473633	-0.090332	
-0.048645	-0.09552	
-0.0498047	-0.098877	
-0.0507202	-0.102234	
-0.0513916	-0.108032	
-0.0518799	-0.114441	
-0.052124	-0.120239	
-0.0521851	-0.125122	
-0.0519409	-0.127258	
-0.0513916	-0.127563	
-0.0502319	-0.127869	
-0.0485229	-0.128174	
-0.0462036	-0.127563	
-0.043335	-0.127563	
-0.039917	-0.127563	
-0.0360107	-0.126343	
-0.0318604	-0.124207	
-0.0276489	-0.121765	
-0.0235596	-0.117493	
-0.0197754	-0.111694	
-0.0164185	-0.104675	
-0.0133667	-0.0976563	
-0.0106812	-0.0918579	
-0.00830078	-0.0863647	
-0.00604248	-0.0817871	
-0.00378418	-0.078125	
-0.00158691	-0.0747681	
0.000427246	-0.0704956	
0.00219727	-0.0665283	
0.003479	-0.0646973	
0.00415039	-0.0650024	
0.00408936	-0.0680542	
0.00323486	-0.072937	
0.00164795	-0.0787354	
-0.000732422	-0.0845337	
-0.00372314	-0.0912476	
-0.00714111	-0.0979614	
-0.0106812	-0.104675	
-0.0142212	-0.109253	
-0.0175171	-0.109863	
-0.0203857	-0.105896	
-0.022583	-0.0970459	
-0.0241089	-0.0860596	
-0.0249023	-0.0747681	
-0.0249634	-0.065918	
-0.024353	-0.0604248	
-0.0231934	-0.0582886	
-0.0219727	-0.0592041	
-0.0209351	-0.0622559	
-0.0204468	-0.0683594	
-0.020813	-0.078125	
-0.0222168	-0.0894165	
-0.0247192	-0.0982666	
-0.0283203	-0.104065	
-0.0328369	-0.106812	
-0.0378418	-0.107117	
-0.0430908	-0.106506	
-0.0481567	-0.105591	
-0.0527954	-0.105591	
-0.0568848	-0.105896	
-0.0603027	-0.105591	
-0.0630493	-0.10437	
-0.0651855	-0.103149	
-0.0667114	-0.101624	
-0.0678711	-0.098877	
-0.0687866	-0.0946045	
-0.0696411	-0.088501	
-0.0704956	-0.0830078	
-0.0712891	-0.0793457	
-0.0721436	-0.0747681	
-0.0731201	-0.0683594	
-0.0741577	-0.0610352	
-0.0752563	-0.0534058	
-0.0762329	-0.0482178	
-0.0772095	-0.0466919	
-0.0780029	-0.0473022	
-0.0786133	-0.0506592	
-0.0790405	-0.0585938	
-0.0792236	-0.071106	
-0.0791016	-0.0857544	
-0.0787964	-0.0982666	
-0.0783081	-0.106201	
-0.0776367	-0.109253	
-0.0769043	-0.108948	
-0.0761719	-0.106201	
-0.0755005	-0.100098	
-0.0750732	-0.0918579	
-0.0748291	-0.085144	
-0.0748901	-0.0811768	
-0.0752563	-0.0787354	
-0.0759277	-0.0787354	
-0.0768433	-0.0814819	
-0.0778809	-0.0830078	
-0.0789185	-0.083313	
-0.0800171	-0.0845337	
-0.0809326	-0.0881958	
-0.081604	-0.0939941	
-0.0820313	-0.100708	
-0.0821533	-0.107117	
-0.0820923	-0.112915	
-0.0819092	-0.114441	
-0.081665	-0.11261	
-0.0812988	-0.110168	
-0.0809937	-0.105286	
-0.0806885	-0.0976563	
-0.0803833	-0.0897217	
-0.0800171	-0.0827026	
-0.0795898	-0.0793457	
-0.0790405	-0.0808716	
-0.0784302	-0.0857544	
-0.0776367	-0.0915527	
-0.0767212	-0.0949097	
-0.0756226	-0.0958252	
-0.0744629	-0.0958252	
-0.0731812	-0.0952148	
-0.0720215	-0.0924683	
-0.0709839	-0.0872803	
-0.0701294	-0.0796509	
-0.069458	-0.0726318	
-0.0691528	-0.0695801	
-0.0690918	-0.0704956	
-0.069397	-0.0726318	
-0.0700073	-0.0735474	
-0.0708618	-0.0726318	
-0.0717773	-0.0717163	
-0.0726929	-0.071106	
-0.0736084	-0.0714111	
-0.0745239	-0.0708008	
-0.0755615	-0.0708008	
-0.0766602	-0.0717163	
-0.0779419	-0.0756836	
-0.0794678	-0.0836182	
-0.0812378	-0.0927734	
-0.0831299	-0.0997925	
-0.0852051	-0.10376	
-0.0872803	-0.104065	
-0.0893555	-0.101013	
-0.0913696	-0.0933838	
-0.0933228	-0.0808716	
-0.0950928	-0.0653076	
-0.0965576	-0.0500488	
-0.0978394	-0.0363159	
-0.0990601	-0.0259399	
-0.10022	-0.0198364	
-0.10144	-0.0183105	
-0.102661	-0.0213623	
-0.103882	-0.0274658	
-0.10498	-0.0357056	
-0.10614	-0.045166	
-0.107239	-0.0540161	
-0.108337	-0.0598145	
-0.109314	-0.0634766	
-0.110107	-0.065918	
-0.110779	-0.0674438	
-0.111328	-0.067749	
-0.111755	-0.0680542	
-0.112183	-0.0708008	
-0.112549	-0.0756836	
-0.112854	-0.0796509	
-0.113098	-0.0827026	
-0.113342	-0.085144	
-0.113586	-0.0875854	
-0.113831	-0.088501	
-0.114136	-0.0875854	
-0.114502	-0.0866699	
-0.11499	-0.0860596	
-0.115601	-0.0854492	
-0.116333	-0.0869751	
-0.117249	-0.090332	
-0.118286	-0.0949097	
-0.119324	-0.100098	
-0.120361	-0.10376	
-0.121216	-0.106812	
-0.122009	-0.108643	
-0.12262	-0.109253	
-0.122864	-0.109253	
-0.122681	-0.108643	
-0.121887	-0.107117	
-0.120544	-0.105591	
-0.118652	-0.104065	
-0.116333	-0.101624	
-0.113647	-0.0973511	
-0.110657	-0.0915527	
-0.107483	-0.0845337	
-0.10437	-0.078125	
-0.10144	-0.0738525	
-0.0988159	-0.0720215	
-0.0964355	-0.0717163	
-0.0943604	-0.072937	
-0.0924683	-0.0769043	
-0.0907593	-0.0839233	
-0.0892334	-0.0921631	
-0.0878296	-0.0994873	
-0.0866089	-0.105286	
-0.0855713	-0.109253	
-0.0847168	-0.110474	
-0.0841064	-0.109863	
-0.0835571	-0.110474	
-0.0831299	-0.110168	
-0.0827026	-0.107422	
-0.0822144	-0.103149	
-0.081604	-0.0952148	
-0.0809937	-0.0848389	
-0.0803223	-0.0717163	
-0.0795898	-0.0549316	
-0.0789185	-0.0332642	
-0.0783691	-0.00335693	
-0.078064	0.03479	
-0.0779419	0.0793457	
-0.0780029	0.128479	
-0.0782471	0.180359	
-0.0786743	0.233154	
-0.0792847	0.281982	
-0.0800171	0.319824	
-0.0808716	0.341187	
-0.0817871	0.343323	
-0.0827026	0.325317	
-0.0836182	0.288086	
-0.0844727	0.23468	
-0.0852051	0.170288	
-0.0858765	0.0991821	
-0.0864258	0.0244141	
-0.0869751	-0.0485229	
-0.0874023	-0.115662	
-0.0878906	-0.175476	
-0.088501	-0.22522	
-0.0891724	-0.26123	
-0.0899048	-0.282593	
-0.0908203	-0.289001	
-0.0921021	-0.281067	
-0.09375	-0.258484	
-0.0958252	-0.223694	
-0.0983276	-0.180969	
-0.101074	-0.137329	
-0.104065	-0.0994873	
-0.107178	-0.0714111	
-0.110291	-0.0540161	
-0.113281	-0.0460815	
-0.115845	-0.0448608	
-0.118103	-0.0466919	
-0.119873	-0.0485229	
-0.121216	-0.0506592	
-0.122131	-0.0512695	
-0.122559	-0.0479126	
-0.122559	-0.0390625	
-0.122192	-0.0286865	
-0.12146	-0.0192261	
-0.120239	-0.0128174	
-0.118591	-0.0100708	
-0.116455	-0.0112915	
-0.11377	-0.0170898	
-0.110718	-0.0253296	
-0.1073	-0.03479	
-0.103577	-0.0439453	
-0.0996704	-0.0527954	
-0.0956421	-0.0592041	
-0.0916748	-0.062561	
-0.0878296	-0.062561	
-0.0842896	-0.0598145	
-0.0810547	-0.0540161	
-0.0782471	-0.0448608	
-0.0756836	-0.0344849	
-0.0733032	-0.0244141	
-0.0710449	-0.0164795	
-0.0688477	-0.0109863	
-0.0666504	-0.00762939	
-0.0645752	-0.00854492	
-0.0626221	-0.0131226	
-0.0611572	-0.0186157	
-0.0604858	-0.0247192	
-0.0608521	-0.0323486	
-0.0623169	-0.0405884	
-0.0649414	-0.0473022	
-0.0687866	-0.050354	
-0.0736694	-0.0494385	
-0.0792236	-0.0448608	
-0.085022	-0.0366211	
-0.0907593	-0.0247192	
-0.0961914	-0.0119019	
-0.101074	-0.000915527	
-0.105408	0.00793457	
-0.109253	0.0143433	
-0.112671	0.0198364	
-0.115845	0.0256348	
-0.119019	0.0286865	
-0.122192	0.0283813	
-0.125366	0.0268555	
-0.128418	0.0253296	
-0.131348	0.0253296	
-0.134094	0.0271606	
-0.136597	0.0289917	
-0.138794	0.0296021	
-0.140747	0.0286865	
-0.142517	0.0268555	
-0.144104	0.0250244	
-0.145691	0.0231934	
-0.147278	0.0216675	
-0.148987	0.020752	
-0.150818	0.0216675	
-0.15271	0.0265503	
-0.154602	0.03479	
-0.156555	0.0469971	
-0.158447	0.062561	
-0.160156	0.0790405	
-0.161743	0.0939941	
-0.163086	0.106506	
-0.164124	0.116882	
-0.164856	0.123901	
-0.165222	0.127563	
-0.165222	0.127563	
-0.164917	0.125732	
-0.164429	0.125122	
-0.163635	0.126648	
-0.162598	0.129395	
-0.161255	0.133667	
-0.159668	0.140381	
-0.157837	0.148315	
-0.155762	0.155029	
-0.15332	0.159302	
-0.150635	0.161133	
-0.147583	0.160522	
-0.144287	0.159302	
-0.140625	0.157776	
-0.136658	0.15564	
-0.132385	0.155945	
-0.127808	0.161438	
-0.122925	0.172424	
-0.117676	0.187073	
-0.112061	0.204163	
-0.10614	0.223389	
-0.0999146	0.24353	
-0.0933838	0.262146	
-0.0866699	0.2771	
-0.079834	0.286255	
-0.072998	0.288086	
-0.0662842	0.284119	
-0.0596924	0.278931	
-0.0533447	0.273743	
-0.0471802	0.269165	
-0.0411377	0.265198	
-0.0353394	0.262146	
-0.0297241	0.262756	
-0.0241699	0.267029	
-0.0187378	0.273132	
-0.0132446	0.278931	
-0.00775146	0.281372	
-0.00231934	0.279846	
0.00311279	0.274658	
0.00842285	0.266418	
0.0134888	0.254517	
0.0181885	0.239868	
0.0224609	0.223389	
0.0263672	0.206604	
0.0298462	0.188904	
0.0328979	0.171204	
0.0356445	0.153809	
0.0380859	0.137939	
0.0404663	0.122986	
0.0427246	0.109558	
0.0449829	0.0982666	
0.0471802	0.0894165	
0.0493164	0.0823975	
0.0513916	0.0769043	
0.0532837	0.0708008	
0.0550537	0.062561	
0.0566406	0.0518799	
0.0581665	0.0378418	
0.0595093	0.0198364	
0.0608521	-0.000610352	
0.0620728	-0.020752	
0.0631714	-0.0369263	
0.0640869	-0.0476074	
0.0649414	-0.0531006	
0.0656738	-0.0549316	
0.0662231	-0.0546265	
0.0665894	-0.0540161	
0.0667725	-0.0534058	
0.0668335	-0.0537109	
0.0666504	-0.0567627	
0.0664063	-0.0634766	
0.06604	-0.0720215	
0.0656128	-0.0790405	
0.0651245	-0.0836182	
0.0646973	-0.0857544	
0.0643311	-0.0857544	
0.0641479	-0.0845337	
0.0641479	-0.0830078	
0.0643921	-0.0808716	
0.0646973	-0.0784302	
0.0651245	-0.0765991	
0.0654907	-0.0772095	
0.0657959	-0.0784302	
0.065918	-0.0787354	
0.0657959	-0.0775146	
0.0653687	-0.0772095	
0.0646362	-0.0793457	
0.0637207	-0.0863647	
0.0626831	-0.0964355	
0.0616455	-0.107422	
0.0606689	-0.118408	
0.0599365	-0.127869	
0.0593872	-0.133972	
0.059021	-0.132751	
0.0588379	-0.126953	
0.0587769	-0.119324	
0.0587769	-0.109558	
0.059021	-0.0967407	
0.0596313	-0.0830078	
0.06073	-0.0720215	
0.0623169	-0.0665283	
0.0645142	-0.0662231	
0.0672607	-0.0686646	
0.0703125	-0.0726318	
0.0734863	-0.078125	
0.0764771	-0.0860596	
0.0791016	-0.0924683	
0.0811157	-0.0946045	
0.0824585	-0.0958252	
0.0830688	-0.0958252	
0.0831909	-0.0927734	
0.0830078	-0.0875854	
0.0826416	-0.0836182	
0.0822754	-0.0808716	
0.0820923	-0.0793457	
0.0820313	-0.0802612	
0.0821533	-0.0839233	
0.0823364	-0.0918579	
0.0825806	-0.10376	
0.0827637	-0.117188	
0.0828857	-0.127258	
0.0828857	-0.132446	
0.0828247	-0.132446	
0.0825195	-0.128174	
0.0819092	-0.118713	
0.0810547	-0.10498	
0.0800171	-0.0875854	
0.0787354	-0.0698853	
0.0772095	-0.0558472	
0.0755005	-0.0476074	
0.0736084	-0.0469971	
0.0716553	-0.0531006	
0.0698242	-0.0637817	
0.0681152	-0.0765991	
0.0665894	-0.0906372	
0.0653076	-0.102539	
0.0643311	-0.109253	
0.0636597	-0.108643	
0.0632324	-0.102539	
0.0631104	-0.0927734	
0.0632324	-0.0823975	
0.0635986	-0.0717163	
0.064209	-0.0628662	
0.0652466	-0.0585938	
0.0667114	-0.0579834	
0.0684204	-0.0601196	
0.0703125	-0.0631714	
0.0722656	-0.0662231	
0.0740356	-0.0692749	
0.0756226	-0.0714111	
0.0767822	-0.072937	
0.0772705	-0.0741577	
0.0772095	-0.0756836	
0.0766602	-0.0769043	
0.0758667	-0.078125	
0.0749512	-0.0817871	
0.0742188	-0.0878906	
0.0737915	-0.0939941	
0.0736084	-0.0982666	
0.0737305	-0.0985718	
0.0740356	-0.0967407	
0.0744019	-0.093689	
0.0747681	-0.0909424	
0.0749512	-0.0866699	
0.0749512	-0.0814819	
0.074707	-0.0790405	
0.0743408	-0.0793457	
0.0741577	-0.0817871	
0.0744019	-0.0860596	
0.0750732	-0.0933838	
0.076416	-0.101624	
0.0784302	-0.108032	
0.0811157	-0.109558	
0.0845947	-0.105591	
0.088623	-0.0991821	
0.0929565	-0.0927734	
0.0974121	-0.0863647	
0.101624	-0.0799561	
0.105591	-0.0747681	
0.109192	-0.072937	
0.112488	-0.0741577	
0.115356	-0.0784302	
0.117981	-0.0830078	
0.1203	-0.0878906	
0.122498	-0.0930786	
0.124512	-0.0979614	
0.126465	-0.102539	
0.128296	-0.106201	
0.129883	-0.106506	
0.131348	-0.104675	
0.132568	-0.102234	
0.133606	-0.0982666	
0.134338	-0.0924683	
0.134827	-0.0863647	
0.135071	-0.0799561	
0.135254	-0.0759888	
0.135254	-0.0762939	
0.135193	-0.0808716	
0.135132	-0.0891113	
0.134949	-0.098877	
0.134827	-0.107422	
0.134644	-0.114136	
0.134399	-0.118103	
0.134094	-0.119019	
0.133667	-0.115967	
0.133118	-0.108948	
0.132446	-0.0991821	
0.131287	-0.0894165	
0.1297	-0.0814819	
0.12738	-0.0759888	
0.124451	-0.0714111	
0.120789	-0.067749	
0.116455	-0.0653076	
0.11145	-0.0637817	
0.105957	-0.0634766	
0.100342	-0.0637817	
0.0947876	-0.0640869	
0.0894775	-0.0646973	
0.0845337	-0.0650024	
0.0800781	-0.0646973	
0.0762329	-0.0643921	
0.0728149	-0.0640869	
0.0698242	-0.0628662	
0.0671387	-0.0592041	
0.0646362	-0.0521851	
0.0621948	-0.0439453	
0.0597534	-0.0372314	
0.057251	-0.0344849	
0.0546875	-0.0378418	
0.052063	-0.0460815	
0.0493164	-0.0576782	
0.0465088	-0.0723267	
0.0437622	-0.0891113	
0.0413818	-0.105286	
0.0394287	-0.116272	
0.0379639	-0.120239	
0.0371704	-0.118408	
0.0370483	-0.109863	
0.0376587	-0.09552	
0.0388184	-0.078125	
0.0404663	-0.0634766	
0.0423584	-0.0527954	
0.0443726	-0.045166	
0.0463257	-0.0408936	
0.0481567	-0.0393677	
0.0498047	-0.0424194	
0.0512085	-0.0494385	
0.0523071	-0.0585938	
0.0531006	-0.067749	
0.0535889	-0.0762939	
0.0536499	-0.0817871	
0.0531616	-0.0839233	
0.052063	-0.0848389	
0.050354	-0.0839233	
0.0479736	-0.0808716	
0.0449829	-0.0759888	
0.0415649	-0.0723267	
0.0377808	-0.0708008	
0.0336914	-0.0714111	
0.0294189	-0.0747681	
0.0251465	-0.0808716	
0.0209961	-0.0863647	
0.0169678	-0.0866699	
0.0131226	-0.0823975	
0.00952148	-0.0775146	
0.00610352	-0.0741577	
0.00292969	-0.0720215	
0	-0.0717163	
-0.00274658	-0.0744629	
-0.00518799	-0.0805664	
-0.00744629	-0.0918579	
-0.00939941	-0.108032	
-0.0112915	-0.124512	
-0.0130005	-0.136414	
-0.0146484	-0.143433	
-0.0161743	-0.145874	
-0.0175781	-0.144653	
-0.0189819	-0.141907	
-0.0202637	-0.137329	
-0.0215454	-0.129395	
-0.0227661	-0.119629	
-0.0239868	-0.110474	
-0.0252075	-0.103455	
-0.0264893	-0.098877	
-0.027832	-0.0952148	
-0.0291748	-0.0918579	
-0.0306396	-0.090332	
-0.0322266	-0.0912476	
-0.0338135	-0.0924683	
-0.0351563	-0.093689	
-0.0361938	-0.0946045	
-0.0366821	-0.0949097	
-0.036499	-0.0946045	
-0.0355225	-0.0921631	
-0.0338135	-0.0878906	
-0.031311	-0.0808716	
-0.0281372	-0.0717163	
-0.0245972	-0.0592041	
-0.020813	-0.039978	
-0.0171509	-0.0125122	
-0.0137329	0.0238037	
-0.0107422	0.0686646	
-0.00811768	0.121765	
-0.00592041	0.180054	
-0.00408936	0.238037	
-0.00256348	0.288391	
-0.00115967	0.325317	
0	0.344543	
0.0010376	0.343628	
0.00201416	0.32135	
0.00280762	0.278625	
0.00354004	0.220032	
0.00408936	0.150146	
0.0045166	0.072937	
0.00482178	-0.00579834	
0.00494385	-0.0796509	
0.00488281	-0.143127	
0.00469971	-0.193481	
0.0043335	-0.228577	
0.00378418	-0.248108	
0.00305176	-0.252991	
0.00219727	-0.243835	
0.00128174	-0.223999	
0.000427246	-0.196228	
-0.000366211	-0.163269	
-0.000915527	-0.130005	
-0.00115967	-0.101929	
-0.00109863	-0.0805664	
-0.000854492	-0.0662231	
-0.000366211	-0.0579834	
0.000183105	-0.0558472	
0.000793457	-0.0585938	
0.0012207	-0.0628662	
0.00146484	-0.0683594	
0.0012207	-0.0744629	
0.000610352	-0.0784302	
-0.000305176	-0.0790405	
-0.00152588	-0.0762939	
-0.00292969	-0.0720215	
-0.00445557	-0.0683594	
-0.00592041	-0.0631714	
-0.00726318	-0.0567627	
-0.00836182	-0.0518799	
-0.00921631	-0.0488281	
-0.0098877	-0.0473022	
-0.010437	-0.0457764	
-0.0109863	-0.0466919	
-0.0115356	-0.0488281	
-0.012207	-0.0509644	
-0.0130005	-0.0521851	
-0.013855	-0.0524902	
-0.0147705	-0.0524902	
-0.015686	-0.0512695	
-0.0164795	-0.0488281	
-0.0170288	-0.0466919	
-0.0174561	-0.0466919	
-0.0177002	-0.0485229	
-0.0178223	-0.0494385	
-0.0178833	-0.0506592	
-0.0180664	-0.0506592	
-0.0183105	-0.0476074	
-0.0189209	-0.0418091	
-0.0200195	-0.0341797	
-0.0217896	-0.0259399	
-0.0241699	-0.0161743	
-0.0271606	-0.00640869	
-0.0307617	0.000915527	
-0.0349121	0.00396729	
-0.0393677	0.00152588	
-0.0440674	-0.00457764	
-0.0487061	-0.0125122	
-0.0532227	-0.0213623	
-0.057373	-0.0296021	
-0.0611572	-0.032959	
-0.0643921	-0.0296021	
-0.0672607	-0.0222778	
-0.0697021	-0.0152588	
-0.0719604	-0.00732422	
-0.0739746	0.00152588	
-0.0756836	0.00976563	
-0.0772705	0.0140381	
-0.0787354	0.0137329	
-0.0801392	0.0109863	
-0.0813599	0.00671387	
-0.0824585	0.00183105	
-0.0834351	-0.00274658	
-0.0843506	-0.00579834	
-0.0852661	-0.00579834	
-0.0861816	-0.00183105	
-0.0871582	0.00549316	
-0.0881348	0.0164795	
-0.0892334	0.0311279	
-0.090332	0.0482178	
-0.0913696	0.065918	
-0.0924072	0.0820923	
-0.0933838	0.0952148	
-0.0942993	0.105896	
-0.0951538	0.112915	
-0.0960083	0.115356	
-0.0968628	0.112915	
-0.0976563	0.106506	
-0.0983276	0.0976563	
-0.0987549	0.0897217	
-0.098999	0.0848389	
-0.098877	0.0817871	
-0.0982666	0.0805664	
-0.0971069	0.0820923	
-0.0953979	0.0878906	
-0.0930786	0.0979614	
-0.0900879	0.110474	
-0.0865479	0.123291	
-0.0823364	0.137024	
-0.0775757	0.151062	
-0.0723877	0.163879	
-0.0667114	0.176086	
-0.0606079	0.186157	
-0.0540771	0.192261	
-0.0472412	0.195313	
-0.0401001	0.197144	
-0.0328369	0.198059	
-0.0253906	0.198059	
-0.0178223	0.198364	
-0.0101929	0.200195	
-0.00244141	0.203552	
0.00531006	0.209656	
0.0130005	0.218506	
0.0205688	0.231018	
0.0280151	0.248108	
0.0353394	0.267334	
0.0424194	0.285645	
0.0491333	0.299988	
0.055542	0.310669	
0.0616455	0.316467	
0.0672607	0.317383	
0.0724487	0.31189	
0.0772095	0.301514	
0.0814209	0.289917	
0.0852051	0.279541	
0.0884399	0.271301	
0.0911865	0.264587	
0.0935669	0.258789	
0.0955811	0.25177	
0.097229	0.24231	
0.0985718	0.231323	
0.0996704	0.219116	
0.100586	0.204468	
0.101318	0.187378	
0.10199	0.168457	
0.102661	0.149536	
0.103333	0.134277	
0.104004	0.12146	
0.104736	0.108948	
0.10553	0.09552	
0.106323	0.0811768	
0.107117	0.0671387	
0.107788	0.0558472	
0.108337	0.0466919	
0.108704	0.0390625	
0.108948	0.032959	
0.109253	0.027771	
0.10968	0.0228882	
0.110168	0.0189209	
0.110962	0.0146484	
0.112061	0.00915527	
0.113586	0.00152588	
0.115479	-0.0088501	
0.117737	-0.0234985	
0.120239	-0.0418091	
0.122925	-0.0619507	
0.125732	-0.0802612	
0.128479	-0.0949097	
0.131226	-0.104675	
0.133789	-0.108337	
0.136169	-0.106506	
0.138306	-0.0985718	
0.140137	-0.0875854	
0.141785	-0.0765991	
0.14325	-0.067749	
0.144592	-0.0643921	
0.145874	-0.0653076	
0.147034	-0.0714111	
0.147949	-0.0830078	
0.148682	-0.0979614	
0.149292	-0.109558	
0.149902	-0.114746	
0.150635	-0.116272	
0.151611	-0.113525	
0.153015	-0.108643	
0.154846	-0.103149	
0.157227	-0.0979614	
0.160095	-0.0942993	
0.16333	-0.0921631	
0.166687	-0.0915527	
0.169983	-0.0918579	
0.172729	-0.0912476	
0.174683	-0.0897217	
0.175598	-0.0878906	
0.175537	-0.0863647	
0.1745	-0.085144	
0.172485	-0.0830078	
0.1698	-0.0805664	
0.166626	-0.0802612	
0.16333	-0.0827026	
0.160095	-0.0872803	
0.157227	-0.0921631	
0.154968	-0.0958252	
0.153198	-0.0976563	
0.151978	-0.0985718	
0.151245	-0.0985718	
0.150696	-0.0976563	
0.15033	-0.09552	
0.149841	-0.0918579	
0.14917	-0.0878906	
0.148254	-0.0842285	
0.147034	-0.0814819	
0.145569	-0.0811768	
0.14386	-0.0823975	
0.14209	-0.0848389	
0.140442	-0.0891113	
0.138916	-0.0949097	
0.137634	-0.101929	
0.136597	-0.108337	
0.135925	-0.112	
0.135864	-0.113525	
0.136353	-0.114136	
0.137329	-0.115356	
0.138855	-0.115662	
0.140869	-0.115967	
0.14325	-0.116577	
0.145935	-0.115662	
0.148804	-0.113525	
0.151733	-0.109558	
0.15448	-0.10498	
0.157043	-0.100403	
0.15918	-0.0967407	
0.160522	-0.093689	
0.161133	-0.0909424	
0.16095	-0.0875854	
0.159973	-0.0842285	
0.158203	-0.0830078	
0.15564	-0.0830078	
0.152466	-0.0811768	
0.148926	-0.0765991	
0.145203	-0.0695801	
0.141541	-0.0643921	
0.138062	-0.0616455	
0.134888	-0.0610352	
0.131897	-0.0628662	
0.129272	-0.0668335	
0.126831	-0.0726318	
0.124512	-0.0793457	
0.122314	-0.0845337	
0.120239	-0.0866699	
0.118225	-0.0875854	
0.116211	-0.0894165	
0.114258	-0.0915527	
0.112427	-0.093689	
0.110718	-0.09552	
0.109253	-0.0997925	
0.107971	-0.107117	
0.106873	-0.115967	
0.106079	-0.12207	
0.105408	-0.122681	
0.10498	-0.12085	
0.104736	-0.118103	
0.104553	-0.112915	
0.104431	-0.104675	
0.104248	-0.0949097	
0.104126	-0.0848389	
0.104004	-0.0759888	
0.103943	-0.0692749	
0.103882	-0.0646973	
0.10376	-0.0631714	
0.103516	-0.0650024	
0.103271	-0.0689697	
0.102844	-0.0744629	
0.102356	-0.0790405	
0.101746	-0.0830078	
0.101074	-0.088501	
0.100342	-0.093689	
0.0996704	-0.0964355	
0.0991211	-0.0973511	
0.098877	-0.0958252	
0.098877	-0.0924683	
0.0990601	-0.0894165	
0.0994873	-0.0866699	
0.100098	-0.0845337	
0.100769	-0.0830078	
0.10144	-0.0817871	
0.10199	-0.0820923	
0.102356	-0.0827026	
0.102478	-0.083313	
0.102295	-0.083313	
0.101807	-0.0836182	
0.101074	-0.0854492	
0.10022	-0.0900269	
0.0994263	-0.0958252	
0.0986938	-0.101318	
0.0981445	-0.107117	
0.0977173	-0.112915	
0.0974121	-0.118408	
0.097168	-0.122681	
0.0969849	-0.123901	
0.0967407	-0.121765	
0.0963745	-0.114746	
0.0958252	-0.106506	
0.0951538	-0.0994873	
0.0942993	-0.0946045	
0.0933228	-0.0915527	
0.0922241	-0.0906372	
0.0910645	-0.0918579	
0.0898438	-0.0942993	
0.088562	-0.0952148	
0.0872803	-0.0946045	
0.0859985	-0.0924683	
0.0847168	-0.0891113	
0.0835571	-0.0857544	
0.0825195	-0.0823975	
0.081604	-0.0799561	
0.0808105	-0.0793457	
0.0800781	-0.0808716	
0.0794067	-0.0854492	
0.0787354	-0.0912476	
0.0779419	-0.0964355	
0.0770874	-0.0982666	
0.0761108	-0.0967407	
0.0750122	-0.0939941	
0.0739136	-0.0909424	
0.0726929	-0.0878906	
0.0714111	-0.0842285	
0.0700684	-0.0811768	
0.0686646	-0.0808716	
0.0671387	-0.0814819	
0.0655518	-0.0808716	
0.0639648	-0.078125	
0.0623169	-0.0753784	
0.0606689	-0.0741577	
0.059021	-0.072937	
0.0574951	-0.0714111	
0.0560303	-0.0698853	
0.0548096	-0.0704956	
0.0536499	-0.0735474	
0.0526733	-0.0775146	
0.0517578	-0.0827026	
0.0509033	-0.0881958	
